644
651
632
659
623
638
658
612
643
619
632
644
623
649
640
637
639
625
640
651
615
661
624
645
637
627
634
642
629
630
613
643
641
647
649
627
644
659
622
628
637
624
647
614
635
640
630
649
629
642
661
625
640
632
615
635
614
633
652
621
642
614
629
629
627
645
647
645
665
626
654
649
632
634
612
643
625
629
636
638
632
635
621
636
648
644
634
605
634
640
627
644
643
622
626
609
628
632
624
644
630
649
655
618
635
638
614
624
629
641
625
619
632
610
621
645
621
648
636
636
632
615
626
638
628
644
631
621
611
615
620
634
646
648
626
651
648
624
622
623
611
637
639
623
630
616
630
611
626
644
634
625
619
627
624
615
629
624
632
632
609
613
616
618
634
657
650
659
645
644
631
617
617
622
628
620
632
641
626
617
630
621
642
642
636
629
615
634
635
621
627
640
616
623
606
617
615
629
641
644
633
636
626
621
628
620
625
635
631
621
623
620
611
621
627
625
633
629
638
623
625
625
627
629
622
620
620
608
636
617
641
640
647
636
662
619
618
609
621
625
621
622
629
617
632
621
615
623
624
618
627
627
639
634
625
620
626
613
620
612
614
609
632
639
647
634
648
657
638
625
613
613
625
625
622
617
618
628
613
629
609
617
627
632
642
628
614
614
622
616
625
620
623
629
604
622
633
627
634
649
623
622
637
620
618
617
617
618
623
625
625
603
618
618
612
624
621
640
632
613
624
617
608
612
608
622
608
629
631
628
632
627
635
629
627
631
605
628
625
616
626
633
615
621
605
607
621
607
622
629
629
624
623
625
613
609
608
609
615
622
635
631
629
622
644
634
619
626
613
613
608
606
614
607
611
631
610
608
621
627
609
619
627
628
630
624
609
609
622
604
608
605
623
624
607
610
635
624
622
626
626
628
601
612
608
599
616
611
612
613
609
612
612
614
613
604
631
617
614
620
615
607
613
597
626
627
618
617
601
635
613
606
634
605
613
608
607
609
611
611
607
598
615
612
612
608
615
600
592
618
619
601
611
617
599
611
614
635
630
606
631
611
617
598
594
614
608
601
632
608
613
622
580
602
610
609
606
613
603
605
577
608
604
625
622
596
607
606
604
626
606
621
620
579
603
596
599
606
597
628
610
622
618
596
596
590
594
609
603
594
611
593
615
603
589
605
589
611
611
584
597
599
618
615
586
627
610
576
598
593
602
601
601
612
594
608
590
576
593
593
586
612
598
597
593
586
588
584
601
614
596
617
597
577
623
595
618
605
571
610
588
593
600
590
603
595
590
604
592
605
589
579
608
591
603
613
580
594
584
580
601
576
611
599
589
605
583
614
611
588
613
594
576
598
578
590
593
586
598
594
606
609
576
591
596
574
596
581
591
587
580
581
583
592
590
586
611
594
579
607
591
629
591
579
608
578
597
573
575
601
579
573
594
579
612
584
575
596
581
568
583
572
592
578
557
590
569
590
590
576
607
591
581
581
568
604
572
560
587
572
584
586
566
589
566
573
590
585
592
579
569
580
568
592
586
577
600
572
578
569
569
596
579
592
595
602
612
582
588
607
576
588
609
600
613
602
607
598
595
633
598
612
611
607
600
612
612
617
607
589
600
570
604
590
581
602
606
597
580
570
582
552
542
552
541
564
553
522
547
520
501
496
512
536
537
552
566
555
583
563
550
560
565
552
551
566
580
573
577
581
578
590
567
563
567
553
554
570
575
587
569
559
583
568
587
566
579
595
578
570
567
568
580
565
567
579
560
563
574
565
569
563
574
578
577
582
559
561
571
559
564
570
560
572
560
570
576
552
566
579
570
574
571
574
572
563
557
566
557
562
561
575
574
567
567
559
563
573
577
560
563
559
567
564
575
569
565
570
565
555
569
559
580
570
567
574
577
568
566
570
554
559
564
564
550
563
564
564
569
575
583
560
562
561
557
560
559
566
572
572
567
568
558
564
558
564
572
571
569
567
560
563
567
564
559
568
568
568
565
568
561
564
569
558
564
567
564
570
566
575
563
565
566
567
567
568
560
561
564
584
581
575
571
566
568
553
557
571
568
575
573
558
567
566
561
560
568
568
578
568
574
569
569
557
560
571
570
552
559
566
561
570
570
573
574
573
568
557
562
562
560
565
566
567
557
567
567
559
562
564
573
567
566
566
566
568
567
564
572
564
559
560
568
558
561
572
570
583
578
569
564
552
546
552
563
565
558
565
566
563
553
550
576
568
569
577
566
561
556
563
565
570
560
560
549
554
555
562
563
576
574
577
568
560
558
555
557
559
561
567
562
556
558
554
551
564
566
565
579
564
561
557
558
556
563
555
553
546
559
564
563
558
557
567
573
556
557
554
557
537
553
566
567
553
555
544
557
556
550
562
578
579
560
564
563
560
545
541
554
562
562
562
551
563
566
565
568
568
554
553
557
566
563
563
561
566
562
551
551
551
551
561
570
563
572
569
564
561
549
561
557
566
553
553
561
561
560
554
555
568
565
572
573
568
560
560
553
560
559
559
554
552
563
559
559
558
566
572
572
562
569
563
563
549
560
558
566
549
557
557
551
561
572
574
582
569
561
556
545
551
555
560
560
553
558
560
561
560
566
567
558
566
561
563
564
558
553
555
566
561
564
558
566
559
558
563
560
568
561
553
560
566
552
546
569
566
554
554
561
561
553
554
568
573
576
561
557
559
567
557
557
561
560
559
559
561
557
555
565
565
565
563
554
571
554
562
560
554
556
557
557
555
563
568
552
558
568
571
574
573
562
561
555
563
556
559
563
555
553
553
565
565
569
569
563
575
559
558
554
555
558
563
570
557
559
561
569
567
571
575
575
562
565
564
568
556
568
559
564
566
557
560
559
552
561
559
580
559
568
574
567
557
545
559
562
564
568
566
570
553
549
570
560
570
567
575
569
565
568
561
562
560
558
564
553
573
561
556
568
566
576
563
568
569
556
565
555
559
568
559
567
560
558
562
550
572
578
576
579
560
569
558
567
556
557
559
559
573
561
568
565
557
569
569
579
572
563
564
565
565
565
552
564
554
574
565
561
567
563
574
575
574
574
558
563
547
565
565
561
562
553
553
579
567
568
567
579
568
567
572
572
560
551
561
566
579
572
554
556
563
560
576
570
572
576
575
575
568
567
564
549
561
569
562
553
560
564
555
576
577
585
570
567
560
568
565
561
566
566
558
570
562
565
569
557
570
568
582
573
568
573
559
560
558
563
561
558
559
561
559
576
554
578
572
569
578
568
551
569
563
552
567
567
556
564
566
561
562
572
572
567
577
574
569
572
563
567
563
561
566
570
556
567
564
567
561
574
561
573
576
571
581
576
563
557
566
566
555
568
573
572
568
580
577
582
572
551
567
564
561
557
569
570
575
580
567
567
573
565
571
581
568
574
563
574
565
567
568
565
566
574
563
565
575
560
567
581
569
574
577
564
570
575
557
563
572
566
566
562
561
565
575
571
583
583
568
575
566
559
567
562
570
579
567
573
570
569
564
569
574
587
575
568
566
574
569
568
562
561
576
582
577
578
590
582
593
607
586
609
601
606
607
595
580
600
598
596
606
602
601
616
599
611
611
601
608
597
587
595
589
590
594
573
569
563
558
547
554
547
548
551
551
537
532
517
507
497
501
523
529
546
558
555
568
565
556
577
576
570
568
571
576
575
566
568
581
570
566
565
558
569
578
576
586
588
586
578
573
572
569
562
573
571
569
570
563
570
580
575
590
593
582
574
570
575
567
579
573
573
574
576
571
585
588
568
576
585
587
576
582
575
581
576
565
578
584
575
562
577
571
572
572
577
571
592
588
577
576
583
555
565
570
574
568
570
567
567
577
575
587
586
581
561
575
579
570
572
569
575
575
570
558
570
567
566
569
583
578
581
577
575
579
577
579
573
569
561
568
577
581
571
574
587
588
589
593
582
570
575
572
564
568
584
573
573
576
583
575
583
582
588
585
581
564
580
589
572
576
584
584
570
575
568
579
580
578
586
586
581
580
574
582
582
582
569
570
579
575
581
575
581
577
587
589
586
579
575
577
584
577
579
572
584
580
576
576
573
574
579
585
590
584
584
574
577
579
577
584
577
582
571
563
578
575
579
580
594
597
594
579
572
576
560
569
582
580
578
577
574
582
574
579
580
591
586
586
582
578
585
574
573
581
584
582
576
574
577
576
585
590
592
589
589
576
579
581
577
574
580
579
581
569
572
581
577
582
589
596
586
576
575
584
575
581
579
584
581
574
576
587
586
560
574
575
592
575
590
582
587
585
572
572
571
564
571
572
576
577
565
588
584
586
580
570
573
584
579
569
561
579
575
570
565
571
580
581
585
570
582
580
579
570
571
574
582
575
575
569
584
580
557
574
587
587
592
582
563
581
581
561
574
574
580
569
578
570
581
581
581
584
597
603
573
575
586
583
567
571
581
579
574
585
581
585
584
577
587
591
590
575
575
572
569
585
578
586
595
581
571
570
567
576
576
589
597
590
586
582
583
580
574
574
581
581
577
581
586
573
578
589
590
591
572
580
572
590
586
583
586
587
576
564
569
560
579
582
607
599
589
585
588
587
586
576
578
578
574
571
576
587
581
576
584
597
596
587
576
582
584
581
575
581
587
581
585
578
577
578
586
595
602
596
576
578
576
580
574
582
586
575
581
579
575
583
583
586
587
593
593
581
584
579
580
580
587
575
578
574
582
577
577
575
590
593
582
582
584
579
573
561
564
581
592
581
581
578
586
571
575
578
579
588
584
584
586
578
582
576
581
580
571
578
569
579
573
580
591
593
596
590
584
584
579
581
570
579
584
569
577
568
583
578
591
603
588
593
587
587
585
583
578
584
584
574
579
581
586
569
582
593
586
594
586
580
584
587
572
573
569
573
581
571
583
591
588
581
596
592
594
578
567
573
576
569
577
577
582
577
585
577
579
578
579
590
593
582
576
590
581
574
573
584
585
585
582
574
568
575
574
583
603
586
588
583
581
580
582
574
585
578
579
578
589
584
591
577
592
590
588
577
579
587
578
576
588
592
588
573
569
589
575
573
590
598
585
593
574
585
580
580
583
589
570
585
567
572
576
570
583
585
592
594
599
581
573
580
577
576
588
573
580
583
578
588
587
606
582
580
587
572
583
580
583
581
576
585
581
567
574
584
579
583
584
598
591
585
584
585
577
583
575
581
581
579
579
577
585
583
577
588
593
592
584
575
589
569
591
586
582
587
581
586
575
582
574
577
584
592
588
585
587
588
589
581
582
586
577
577
580
583
582
569
585
578
584
588
577
584
590
573
583
580
588
585
579
577
584
583
581
589
590
588
586
578
584
583
577
580
580
590
581
575
569
578
583
582
590
588
591
593
585
576
577
574
576
578
579
574
586
575
583
589
593
592
593
582
584
586
577
569
574
581
585
582
580
578
577
575
580
590
588
598
593
589
580
578
583
579
589
585
574
578
582
587
582
581
599
591
589
586
576
575
581
577
577
590
591
581
581
581
586
586
589
590
576
581
581
587
580
578
589
590
586
580
576
576
579
572
585
589
591
597
587
586
582
578
580
572
588
584
574
572
570
583
577
581
585
598
591
577
577
579
584
579
584
579
584
583
575
579
583
585
588
590
600
588
593
593
591
589
592
589
585
592
593
595
600
606
610
628
625
615
614
607
607
614
610
612
610
621
616
605
607
593
620
604
601
612
603
597
593
587
584
581
568
552
549
561
553
531
528
531
546
550
529
523
508
523
544
557
560
559
566
571
569
558
569
579
573
589
597
586
580
577
578
563
573
583
572
577
580
584
579
568
579
577
586
594
589
594
581
580
592
581
586
589
577
583
580
579
571
576
586
602
593
594
582
577
578
576
584
581
587
584
583
570
578
582
578
586
586
595
586
574
585
573
572
571
580
584
580
577
576
579
580
583
581
587
597
586
579
582
577
576
573
572
578
586
578
575
587
580
588
598
594
572
584
576
581
580
584
579
583
582
580
585
580
570
579
596
586
592
583
578
585
580
585
581
587
584
571
580
589
584
576
582
597
596
594
584
592
577
579
580
583
582
587
585
570
584
597
586
583
584
597
589
598
584
591
585
582
589
589
575
580
582
580
582
584
596
594
602
599
592
585
588
591
585
577
589
593
577
587
585
590
594
600
602
582
586
592
592
589
583
588
589
583
599
582
580
594
595
593
591
600
599
589
581
581
591
593
591
585
595
581
589
579
574
592
600
599
590
591
604
593
581
586
596
584
592
589
576
586
593
594
586
602
602
603
583
587
587
590
592
590
599
596
585
593
592
591
591
602
599
606
600
588
578
598
597
582
595
590
593
584
587
584
592
588
587
608
612
597
596
589
591
589
590
594
593
588
580
591
590
594
598
602
605
607
592
588
598
589
578
587
594
585
577
576
590
585
593
600
592
591
596
589
591
592
594
585
588
575
586
596
582
589
595
596
599
600
585
588
584
594
589
585
595
595
596
587
579
595
591
587
589
602
606
593
591
585
592
585
575
582
600
593
597
590
590
596
600
589
605
601
599
601
588
586
585
599
600
589
591
602
601
589
599
600
607
596
595
603
593
596
594
587
588
603
601
593
586
585
596
578
592
609
605
611
601
589
600
591
590
591
608
599
601
585
586
592
603
594
607
616
606
597
598
597
587
591
592
587
590
591
597
595
597
602
605
592
599
611
590
596
598
588
593
612
595
590
584
596
602
586
597
615
614
605
602
601
585
588
597
606
595
604
600
590
605
605
601
606
602
601
601
595
598
604
592
597
601
594
592
598
597
589
591
594
598
610
603
603
600
595
596
600
591
588
598
594
593
601
611
590
607
598
598
607
584
595
599
598
604
610
589
591
592
605
597
585
602
610
620
612
603
608
601
590
591
599
600
604
590
592
595
601
599
595
617
605
604
592
605
600
596
592
586
598
601
605
601
595
603
600
597
609
619
608
603
606
602
591
588
600
588
605
607
597
599
598
605
613
607
594
612
598
602
615
605
602
600
608
598
589
595
596
606
613
611
611
609
616
603
596
579
589
603
614
618
606
605
619
598
586
600
615
608
611
603
611
614
610
606
610
605
610
602
595
593
601
607
618
616
618
618
603
596
605
600
605
612
615
609
604
601
612
612
606
608
617
613
613
601
601
605
609
599
614
614
608
599
605
611
602
608
623
611
617
606
610
605
599
603
612
612
607
602
601
609
605
615
626
619
621
612
608
604
605
609
608
604
618
612
609
605
605
606
608
611
618
631
616
611
605
594
604
605
610
617
609
614
599
614
606
605
626
616
615
611
606
605
606
603
618
618
614
611
602
617
596
599
603
621
622
619
606
611
612
609
615
623
625
611
600
603
606
609
611
622
623
623
620
599
603
621
610
608
616
615
645
608
610
614
610
614
625
623
623
608
604
606
605
615
611
610
616
604
602
606
621
616
625
629
621
611
605
610
611
614
615
612
623
612
612
599
597
598
617
628
622
627
621
624
608
616
612
614
608
606
612
606
608
620
621
629
633
625
633
622
613
620
615
609
619
619
620
616
607
621
625
614
623
630
623
611
611
619
621
619
619
626
627
615
612
609
628
610
622
633
624
621
621
629
611
623
605
620
626
634
613
611
621
617
616
607
624
628
635
622
613
623
627
618
625
624
604
623
616
619
618
622
628
636
634
619
614
630
621
612
628
625
610
623
616
613
628
606
611
639
638
635
633
622
624
624
627
619
612
605
617
619
619
619
619
626
630
634
632
624
617
604
608
627
617
606
631
629
617
623
618
625
637
630
631
628
617
622
619
623
621
606
644
633
622
614
618
629
622
636
636
626
625
637
627
620
631
614
634
630
622
613
623
622
628
625
638
632
636
631
642
631
643
642
643
653
655
643
639
646
657
660
672
668
649
658
653
663
662
667
662
663
667
671
656
638
653
654
641
669
655
649
645
629
624
623
621
616
615
622
601
579
591
590
594
591
588
564
570
595
610
609
603
614
620
616
614
619
626
633
623
637
653
640
638
623
621
626
620
632
634
642
642
622
626
642
633
639
634
647
653
645
642
632
636
632
640
641
638
632
643
642
634
638
633
632
641
642
642
639
633
643
635
636
636
622
634
642
633
640
643
632
636
636
655
647
637
636
651
649
625
628
653
639
647
633
632
651
624
645
650
639
653
625
640
658
618
637
639
639
654
628
628
634
628
649
638
651
664
637
651
631
617
649
627
644
644
639
639
625
634
653
644
665
654
649
652
631
634
634
634
644
644
639
663
628
648
631
640
667
647
668
646
632
645
625
635
657
640
655
634
634
659
645
654
641
660
665
651
652
665
628
644
638
646
688
648
661
613
643
650
652
652
679
656
671
644
630
650
643
655
640
654
671
637
636
659
644
661
655
667
670
646
649
640
638
669
646
666
670
641
667
647
639
660
653
673
680
647
650
634
650
660
652
677
655
643
659
630
647
666
645
673
659
658
661
632
649
655
641
674
651
666
692
645
652
637
664
661
665
680
661
645
656
635
644
661
642
639
642
646
654
643
647
646
655
669
647
634
643
653
650
650
656
692
644
660
646
656
652
643
662
670
669
650
658
648
655
637
653
642
647
668
640
660
656
637
657
640
671
654
650
654
648
656
652
648
664
678
666
667
635
652
655
651
657
643
646
659
652
663
652
650
654
648
648
665
653
637
637
651
643
638
665
667
652
649
647
657
674
655
665
664
666
633
628
640
653
646
674
644
659
663
643
643
646
656
661
647
653
664
635
654
639
643
659
664
654
673
662
661
650
653
668
664
684
654
675
663
657
668
668
672
686
662
658
654
661
685
659
664
661
673
665
659
662
678
660
643
675
688
681
647
682
676
669
687
686
686
664
663
665
663
657
663
671
678
675
682
683
660
658
678
672
662
655
659
667
658
659
658
664
679
685
674
679
676
674
681
678
671
653
672
664
664
667
664
673
680
679
684
679
676
666
664
667
667
663
675
667
673
656
681
681
665
683
682
685
692
690
675
683
677
676
665
684
686
659
658
675
684
670
683
685
685
686
663
658
663
679
671
661
683
672
673
655
665
662
683
684
681
692
679
687
690
695
681
669
666
669
674
683
676
667
654
666
674
689
689
669
669
674
653
676
669
669
674
651
664
663
680
671
691
696
696
685
679
682
682
671
679
673
671
670
670
671
667
678
673
685
684
694
678
663
662
670
672
675
678
677
665
668
650
664
676
685
702
702
690
684
694
679
678
670
677
683
670
674
668
660
679
671
672
690
682
680
683
667
669
671
679
686
688
657
668
670
672
655
702
702
698
713
682
689
663
678
673
673
674
671
671
661
668
666
686
678
681
689
673
679
679
666
674
673
670
679
681
661
660
672
674
676
694
697
706
694
661
673
672
672
682
658
688
675
661
659
662
672
683
693
690
690
670
669
668
678
662
656
675
677
671
666
672
691
686
699
711
694
699
672
655
671
676
665
682
681
679
659
677
664
680
679
689
691
687
673
671
671
664
667
688
685
677
686
681
671
678
691
685
699
711
682
698
673
678
678
689
673
692
667
673
658
679
674
659
698
682
693
692
665
687
665
679
683
672
691
688
664
697
691
665
694
672
700
702
670
667
676
684
684
673
697
676
661
675
660
673
681
680
693
692
695
682
668
663
680
655
676
666
682
689
656
685
686
701
702
671
687
681
663
679
674
691
680
669
682
673
673
674
667
679
677
666
698
676
697
671
658
668
667
688
675
678
711
675
644
691
667
709
695
665
708
681
682
671
667
673
673
673
684
666
682
682
652
685
677
711
699
665
676
665
663
676
659
687
688
660
702
665
696
689
667
684
680
672
681
658
672
680
662
678
651
681
682
671
675
660
659
675
682
696
685
662
680
663
656
676
661
700
683
659
680
656
686
675
663
693
680
664
671
655
683
664
652
675
657
656
666
665
675
664
667
681
685
688
685
662
666
647
672
674
675
706
662
656
653
653
669
663
682
691
682
679
661
655
686
670
665
678
668
667
660
665
671
654
673
676
666
687
664
648
661
658
697
671
662
685
653
685
675
667
702
678
670
680
672
671
651
657
683
669
682
682
651
670
655
659
671
675
692
681
676
677
658
671
670
667
671
670
655
673
650
672
657
647
671
665
695
673
668
677
680
672
684
681
689
684
679
674
686
691
717
703
703
695
707
694
690
711
701
711
695
702
700
698
679
698
681
687
705
690
705
686
660
656
655
651
658
649
648
619
613
631
613
635
615
615
612
596
605
631
638
652
641
657
664
666
659
655
653
674
664
659
670
669
677
654
673
653
638
679
676
659
664
657
662
645
652
671
680
675
677
672
673
669
670
681
670
661
667
664
659
657
671
672
673
678
670
685
684
665
660
664
645
664
665
662
690
659
661
669
663
671
674
680
667
657
657
649
652
664
668
683
655
655
657
660
657
669
675
671
658
662
653
676
659
656
650
683
668
651
659
657
655
660
645
669
667
665
659
664
656
661
657
659
660
665
664
649
652
650
669
673
662
676
671
652
662
659
671
664
657
663
672
655
650
658
653
664
671
675
671
665
657
644
657
656
654
662
674
663
638
657
665
655
657
674
675
655
669
652
653
661
669
660
661
649
655
660
649
670
666
676
678
671
668
659
652
645
653
667
664
664
661
657
655
662
654
664
678
660
669
662
654
655
658
654
675
666
653
657
644
633
651
668
666
666
671
653
662
655
659
661
663
662
651
662
654
656
660
650
666
663
675
670
671
646
652
656
652
659
664
664
655
654
644
660
642
652
663
659
663
651
696
658
659
668
655
647
650
661
650
643
651
657
653
666
676
671
659
668
640
645
653
669
659
660
650
647
652
652
659
670
663
655
654
663
649
640
653
659
645
659
659
644
642
646
641
648
665
648
664
655
651
647
654
651
639
656
657
646
631
639
644
641
654
667
665
655
638
630
650
635
640
646
648
635
645
647
654
648
644
658
648
639
642
642
632
642
638
657
665
652
650
636
630
628
640
643
656
653
645
653
639
642
647
643
648
651
630
635
639
637
643
645
641
651
647
651
647
644
639
642
652
638
637
660
640
630
643
642
650
634
644
655
653
645
631
639
645
651
638
649
654
628
638
645
644
647
649
660
642
648
627
644
645
633
651
637
646
645
633
643
643
648
629
648
646
655
646
638
636
628
637
648
643
643
638
644
616
638
633
644
654
656
642
645
642
630
631
636
647
640
636
635
635
640
634
646
651
656
648
620
636
635
637
642
636
643
631
630
630
633
647
644
648
647
650
647
634
637
642
636
649
642
639
630
634
633
639
629
635
654
643
640
646
641
633
631
631
630
642
652
639
623
636
619
627
647
646
648
644
640
624
630
640
636
643
638
638
623
627
624
628
631
645
644
643
645
637
634
637
632
627
632
630
633
630
635
633
639
630
641
654
652
633
628
632
622
637
625
634
636
631
627
635
636
626
635
637
642
629
625
634
630
628
628
628
631
636
635
626
628
628
622
637
635
628
639
627
630
624
618
632
628
631
627
629
622
626
621
627
640
637
639
642
619
638
630
628
630
631
627
626
617
625
622
623
638
638
640
631
628
626
622
632
625
621
629
629
624
613
624
625
624
622
626
640
625
629
619
617
609
622
623
623
625
615
611
621
626
628
642
629
629
622
623
634
621
617
610
625
615
617
621
618
621
612
629
632
636
628
628
623
621
626
614
622
612
624
617
612
621
619
624
622
626
630
619
623
600
613
619
625
625
623
627
608
616
619
627
605
622
629
624
627
621
621
623
617
612
618
623
623
619
615
619
614
623
626
622
618
619
621
622
625
630
605
609
624
619
616
615
601
610
618
621
639
617
618
609
622
613
626
621
602
619
615
607
610
611
613
617
634
627
631
610
609
611
610
614
617
612
606
604
606
616
617
611
613
626
621
621
611
601
611
604
620
623
613
611
587
594
609
611
617
616
622
611
620
611
615
607
608
604
612
617
601
601
603
611
610
622
630
622
607
606
608
610
612
603
611
618
607
608
609
606
602
602
622
611
629
609
605
600
610
605
619
618
600
602
604
601
622
606
600
599
617
620
611
609
626
594
610
613
607
618
589
595
599
622
614
612
614
616
614
613
610
606
599
597
609
607
609
610
604
611
605
606
612
609
601
610
603
601
607
605
612
610
597
589
599
605
605
605
610
619
608
613
603
604
600
601
601
600
603
601
589
591
601
600
608
619
614
615
611
584
592
600
594
600
607
613
605
609
594
585
595
595
608
609
615
610
598
598
600
597
596
594
604
602
596
597
604
608
603
601
607
609
602
604
607
596
599
607
614
610
606
601
617
617
625
627
624
628
622
630
638
635
627
629
626
634
628
620
624
631
639
642
631
633
625
629
606
620
624
626
617
613
597
590
585
574
577
576
581
574
580
560
554
545
530
519
533
548
566
577
580
581
586
586
579
595
603
611
602
591
596
585
584
592
594
609
600
598
584
594
597
600
605
608
606
598
598
595
597
600
600
600
599
602
595
599
593
591
606
600
601
602
610
599
600
595
590
593
597
586
596
595
598
597
594
595
604
604
593
591
604
595
597
594
585
610
587
581
593
585
599
600
593
602
614
596
587
600
591
595
601
591
588
595
582
597
590
591
592
605
608
599
595
591
591
586
594
600
596
598
585
586
590
588
590
598
606
609
606
600
598
591
587
589
592
598
603
595
587
592
590
599
594
606
603
603
589
586
588
583
584
592
590
592
586
592
587
589
587
601
597
597
594
591
592
584
580
594
600
597
582
586
592
594
593
601
595
597
591
587
596
596
594
595
584
590
595
594
587
591
593
597
602
595
602
592
588
584
592
596
590
591
598
585
581
585
586
588
596
596
598
601
593
579
586
585
597
592
588
596
584
585
586
582
592
582
596
596
600
589
598
594
582
579
585
600
591
585
581
589
591
586
600
599
599
594
592
584
590
571
586
570
589
581
599
594
586
583
585
588
603
601
589
587
588
573
586
593
575
579
584
579
595
592
572
589
594
599
594
589
587
585
581
587
583
584
574
583
578
585
585
583
585
594
585
585
582
584
578
586
575
585
575
578
569
571
578
578
594
593
594
591
582
570
577
581
574
581
578
570
573
578
577
567
583
576
590
591
592
577
576
575
583
581
569
579
563
574
565
574
580
577
590
585
583
581
577
573
566
578
572
572
584
574
585
578
572
583
573
586
586
584
576
581
573
575
569
571
579
578
573
571
576
581
572
577
586
588
579
574
575
585
573
569
573
580
570
567
572
573
580
581
583
585
578
571
574
572
579
571
576
576
578
575
567
582
576
575
583
578
573
584
578
584
560
577
574
578
572
581
567
565
562
567
573
578
580
573
583
584
577
573
563
568
569
568
566
574
569
573
567
569
587
587
579
581
574
573
576
571
569
578
580
574
570
570
571
575
575
574
578
587
582
584
576
560
567
569
560
559
570
572
572
569
573
581
580
575
578
577
572
565
564
570
569
566
565
566
578
566
569
563
575
569
576
570
570
572
574
566
564
567
578
564
564
565
573
568
571
572
572
578
575
563
577
562
572
563
569
560
568
561
572
560
572
581
568
578
572
567
570
559
559
566
567
569
562
568
568
557
571
556
577
584
577
572
565
565
569
558
568
561
574
571
559
568
560
564
565
572
576
576
574
562
562
569
564
561
559
562
564
567
569
565
565
570
577
573
573
573
572
566
567
562
566
571
552
563
567
566
564
572
571
574
579
566
559
571
567
562
559
572
575
569
555
554
571
566
568
570
578
582
572
563
560
571
569
561
566
558
570
566
566
563
567
572
571
577
574
564
566
573
560
565
571
570
571
564
559
565
561
558
575
578
574
571
569
567
570
566
555
567
569
560
553
564
564
559
558
569
572
577
570
568
564
557
558
563
568
557
566
565
567
560
566
563
575
576
574
572
562
563
561
564
558
559
561
561
565
560
568
559
570
574
576
570
567
572
569
560
561
566
559
559
559
559
569
560
568
571
566
569
555
564
562
568
557
566
572
562
563
551
558
558
563
570
569
575
581
569
559
563
559
559
575
562
562
569
561
562
554
557
568
571
576
564
565
560
558
564
560
564
568
560
572
567
553
559
557
569
579
580
566
568
562
560
561
567
559
560
563
559
558
562
559
566
567
567
576
562
566
566
561
563
563
554
559
555
560
571
561
559
571
574
572
570
557
567
563
553
554
566
562
556
553
555
562
562
561
572
567
573
563
565
561
562
560
556
557
557
551
562
563
563
558
577
572
570
566
559
566
561
559
559
563
574
560
564
561
563
558
564
574
583
585
575
576
578
578
577
580
579
588
591
594
596
589
575
588
599
606
595
600
598
607
592
589
590
580
582
578
575
579
578
567
577
578
568
568
560
548
551
534
530
523
522
515
515
514
496
480
503
513
539
543
548
542
547
545
555
551
551
553
543
550
547
559
550
558
570
568
575
566
554
555
547
550
554
567
559
563
561
565
560
551
568
572
571
573
561
564
555
558
551
560
567
559
556
562
563
553
553
570
566
573
573
555
563
564
548
554
567
564
559
549
545
563
556
563
573
560
561
564
560
556
555
556
555
559
567
554
562
556
545
556
557
561
568
560
557
559
564
556
558
557
556
564
562
560
565
553
547
553
573
571
565
562
557
559
558
552
560
558
553
553
563
561
553
558
565
566
574
566
563
556
555
556
564
563
556
555
563
556
572
555
565
567
571
561
566
567
549
549
560
562
567
560
559
571
560
552
569
564
575
572
575
550
567
562
548
555
555
563
574
559
553
560
560
558
573
570
569
571
564
555
567
553
551
560
557
561
558
561
558
563
567
564
567
567
558
564
563
561
556
559
554
548
556
556
560
562
557
565
574
571
557
565
562
567
553
560
555
567
558
558
556
561
557
567
570
563
565
571
562
563
559
559
564
565
561
564
560
557
551
558
561
567
579
570
565
569
556
556
551
557
564
559
561
559
563
554
560
562
578
568
568
562
568
569
554
551
562
561
557
558
555
558
560
555
560
572
574
564
561
558
559
554
557
557
560
551
554
561
553
555
559
565
563
563
560
560
558
543
551
554
563
549
551
546
557
555
560
559
562
567
563
560
554
559
550
551
549
560
551
545
555
556
554
557
565
564
562
556
556
555
558
554
555
556
551
554
556
556
556
554
554
566
566
561
561
561
556
557
551
557
560
552
552
558
560
554
562
560
568
571
572
556
559
563
546
551
548
558
562
555
548
559
551
558
572
566
559
565
558
562
555
563
555
554
550
553
560
559
556
557
560
562
558
569
566
563
558
551
557
562
562
556
568
552
558
560
556
557
571
568
566
562
558
562
557
548
550
562
561
551
555
559
559
546
569
571
571
564
556
557
553
554
558
550
556
558
558
550
555
555
563
566
562
569
561
566
559
553
550
552
557
557
559
558
557
551
552
554
571
578
559
549
562
558
557
557
560
555
559
552
553
563
554
551
559
565
572
565
560
552
548
557
554
562
556
554
555
552
552
550
558
569
562
564
556
559
564
557
550
551
553
551
552
560
560
553
558
560
570
565
558
555
560
557
559
557
555
555
559
549
555
554
553
553
571
569
569
565
550
555
550
550
555
555
554
558
553
559
557
553
560
568
560
565
561
554
565
543
546
555
559
562
558
556
558
554
543
558
561
566
567
561
560
560
556
544
563
566
568
553
548
559
555
550
561
569
570
571
556
551
556
550
557
550
551
556
562
560
554
557
558
563
572
559
557
559
558
542
556
558
558
547
547
549
555
559
550
570
572
563
557
558
550
563
558
553
558
565
548
550
559
563
554
560
554
568
571
562
556
554
560
556
558
551
560
563
556
553
556
556
551
567
566
565
565
565
554
551
542
547
564
555
557
556
555
552
552
563
573
577
562
558
556
557
553
552
555
561
555
549
561
563
566
558
557
561
565
557
559
561
562
559
556
550
551
557
561
547
559
558
554
568
566
566
566
570
561
555
554
557
557
551
548
557
557
558
553
570
571
567
567
566
562
554
551
558
560
561
559
555
557
559
557
555
569
568
570
557
559
566
559
556
556
557
559
560
556
554
556
551
553
566
565
563
563
564
563
558
552
555
544
554
555
550
554
554
552
561
574
571
574
561
560
551
545
544
559
558
557
554
552
555
549
557
562
566
568
563
553
561
554
546
555
557
560
560
551
565
562
562
563
569
565
570
566
570
570
557
562
563
575
574
574
576
586
593
580
593
586
596
593
591
595
590
593
591
586
590
593
580
573
571
578
580
592
591
573
563
567
559
563
553
538
533
527
519
526
528
524
507
501
498
495
507
518
529
536
538
539
542
553
548
541
540
553
557
554
563
565
564
559
555
554
562
553
553
557
555
555
562
561
560
560
563
565
566
564
569
560
567
551
551
561
566
560
555
557
564
555
563
562
570
565
563
561
563
564
553
557
558
564
554
554
562
561
555
556
556
559
570
571
562
561
555
553
548
558
561
566
563
552
551
547
566
571
572
563
568
564
552
556
546
561
562
547
553
556
560
568
551
556
572
569
571
561
573
559
559
553
544
566
560
555
571
558
554
542
566
569
577
571
562
560
563
558
562
575
558
565
557
557
575
560
564
567
563
571
571
564
580
556
557
562
552
566
565
551
564
556
568
558
575
586
571
559
564
557
578
550
560
566
564
568
556
562
572
561
567
563
566
590
568
566
567
565
569
556
553
589
561
577
560
551
582
563
572
578
575
576
558
560
570
563
570
562
556
580
559
557
566
571
594
573
568
586
557
572
558
555
573
566
569
556
547
577
563
563
581
573
585
580
569
577
557
560
554
566
581
570
557
577
553
569
569
576
599
569
568
562
567
577
562
575
580
561
574
561
573
587
561
571
587
566
584
564
579
587
556
574
567
574
578
562
568
580
557
593
559
579
617
565
575
556
566
584
567
581
585
559
584
559
573
585
565
575
578
563
597
564
576
582
559
585
557
566
581
564
584
556
565
596
578
597
604
565
577
557
572
577
564
589
554
557
574
567
573
587
570
586
573
582
584
554
593
571
569
580
564
570
581
578
589
552
588
606
575
593
568
577
583
561
580
587
569
584
562
573
578
558
598
572
597
598
569
582
598
576
586
560
572
580
558
574
570
596
597
570
594
599
582
586
579
573
585
582
580
593
594
594
561
575
575
575
587
569
596
600
589
595
590
579
586
577
581
577
584
595
570
597
598
578
601
590
587
594
591
603
572
572
586
566
582
585
561
574
586
570
586
593
602
600
575
576
570
578
587
585
585
598
588
595
574
599
588
596
587
579
587
594
594
584
587
586
584
572
586
580
573
581
569
581
603
587
608
594
585
586
564
578
592
594
603
574
582
603
582
587
600
593
599
593
584
584
591
580
566
578
594
578
595
589
580
581
580
596
589
587
598
568
593
577
580
589
612
606
594
584
598
578
575
590
604
592
585
586
597
591
591
587
576
588
580
576
588
588
589
577
587
597
603
598
596
578
590
580
591
596
604
605
603
586
586
594
585
604
595
594
590
587
583
586
597
589
586
576
582
578
584
592
590
601
602
598
589
590
592
574
592
591
613
605
606
599
581
587
581
587
583
596
598
600
577
584
598
568
589
590
585
580
588
584
575
579
598
588
581
591
587
585
592
569
605
585
590
586
603
598
576
578
575
585
588
596
592
588
597
576
574
581
591
586
573
571
576
576
584
585
583
596
590
581
577
585
597
594
599
600
598
601
589
576
584
583
580
589
592
590
597
592
581
572
573
570
586
590
578
579
575
587
572
595
588
592
583
578
581
598
592
597
598
599
590
579
585
592
587
604
611
604
613
601
610
596
602
590
594
576
589
577
584
586
577
570
576
589
596
593
595
582
603
599
595
580
579
574
576
568
576
586
571
614
605
607
583
585
590
584
577
569
580
577
583
580
583
583
591
590
587
604
593
599
607
592
613
605
605
615
591
586
589
583
603
593
591
592
589
614
592
592
596
597
587
588
581
586
585
587
591
587
583
601
586
600
603
612
610
576
607
604
610
592
583
587
584
579
585
597
602
611
590
593
594
593
592
584
591
588
579
594
578
590
595
583
587
605
594
594
589
620
589
557
615
589
602
590
577
583
589
589
591
590
599
600
573
597
590
596
583
569
595
594
588
593
572
596
586
579
588
593
623
622
583
608
597
599
592
580
600
604
572
583
576
598
592
593
605
594
608
596
584
599
594
585
618
603
609
614
599
633
605
627
625
616
641
626
613
646
609
621
633
621
631
607
624
611
584
611
614
614
629
604
604
577
579
591
580
579
565
554
572
548
542
555
540
578
546
503
544
542
541
572
562
572
584
560
584
561
584
587
567
602
591
585
606
580
599
571
576
591
574
595
590
572
587
580
572
603
585
627
606
589
611
582
607
590
574
593
579
571
597
571
611
585
576
611
591
612
600
580
594
580
570
592
583
602
575
575
604
585
614
600
585
624
580
562
589
578
591
579
579
589
567
591
591
573
594
580
574
597
595
605
581
575
590
569
611
586
581
594
576
566
574
571
608
588
588
610
581
593
581
577
597
578
567
579
585
591
577
580
583
583
602
596
581
592
585
579
588
567
597
588
579
585
570
572
571
569
606
600
583
595
584
591
586
583
590
587
589
587
581
588
585
571
590
586
607
586
585
593
584
574
592
575
599
582
577
586
577
609
582
579
602
595
586
589
581
599
576
567
596
585
601
577
573
603
579
587
594
605
601
584
582
585
584
592
584
578
592
587
577
591
583
596
581
599
604
598
605
586
582
579
580
580
587
582
591
580
585
588
582
603
602
596
591
586
590
587
583
596
594
586
591
585
596
589
578
596
582
593
601
601
589
587
589
587
587
599
594
581
594
585
575
592
591
605
589
598
591
585
586
585
595
582
592
582
585
580
595
595
582
597
598
604
589
585
591
584
587
583
590
592
584
581
580
583
583
586
586
600
600
604
583
578
587
568
584
594
589
581
579
587
584
583
587
604
591
596
590
585
591
584
583
580
589
593
586
582
585
582
583
581
595
594
593
581
588
584
592
586
583
588
585
587
574
579
586
593
598
610
601
597
583
580
584
577
584
569
589
590
588
584
584
586
584
599
600
599
599
589
585
577
581
580
586
586
576
586
592
582
586
594
591
601
595
592
580
593
587
588
589
589
587
580
581
580
578
595
587
581
600
590
594
584
596
582
595
588
590
589
572
580
575
581
589
606
601
603
593
587
595
584
594
592
587
586
586
580
596
596
585
593
602
595
595
586
589
588
579
578
587
590
595
597
582
591
580
586
594
608
598
596
582
575
596
598
597
591
601
583
583
589
594
587
589
602
606
595
596
588
593
587
577
581
584
587
592
587
596
589
595
585
597
597
597
597
588
587
589
597
591
590
588
587
588
582
590
599
595
599
608
595
592
593
591
590
592
587
593
589
588
591
597
581
596
602
606
594
596
588
589
590
590
586
597
596
587
594
597
586
594
595
609
606
599
582
594
594
597
594
599
601
591
594
587
592
592
600
596
608
600
607
604
602
592
578
595
595
595
597
594
593
589
602
598
611
605
609
592
590
592
600
593
598
608
596
587
585
580
597
595
596
610
608
605
603
592
614
595
576
590
593
597
595
589
601
587
588
604
604
610
605
589
591
585
585
599
599
598
589
590
603
601
591
601
613
597
601
592
590
598
594
592
586
598
590
597
590
591
589
592
596
604
612
607
609
597
596
592
588
596
604
600
605
596
582
594
600
603
607
609
602
602
603
598
599
606
592
599
601
586
599
599
591
602
608
603
614
610
599
591
593
588
596
601
602
613
599
592
594
598
605
602
634
609
590
597
591
595
592
607
602
606
590
592
604
599
596
600
607
607
610
602
609
597
595
605
598
614
601
601
606
598
594
602
619
617
624
605
597
600
591
601
606
601
606
601
588
598
600
601
604
607
599
607
608
604
608
600
600
604
602
599
615
600
598
595
606
607
619
620
611
604
602
602
598
607
613
613
606
595
601
606
605
609
622
622
619
604
595
609
608
597
599
609
598
605
605
602
616
604
613
614
615
617
614
601
604
595
604
610
607
609
603
604
604
608
600
613
616
617
609
609
606
620
619
608
605
605
605
595
607
605
606
609
614
622
627
619
611
596
608
605
595
610
615
616
612
603
609
598
614
614
626
622
608
607
612
604
607
610
607
604
612
605
614
610
615
615
616
618
619
621
615
611
616
605
611
615
609
617
595
606
609
610
627
630
625
623
612
605
603
619
607
624
612
603
604
610
618
611
623
621
618
626
636
629
613
618
613
609
615
611
610
604
615
611
609
622
629
630
615
607
611
604
619
618
626
624
613
611
607
608
622
605
621
634
631
618
606
624
616
612
623
619
620
617
620
611
609
613
615
638
634
633
622
618
627
606
620
629
621
629
611
620
621
621
637
639
653
650
647
660
639
653
645
641
645
636
638
648
651
651
647
661
666
668
667
654
647
640
646
630
635
638
628
624
623
610
610
597
607
605
596
591
585
582
581
584
558
543
555
553
581
588
600
611
608
624
626
627
624
616
625
618
613
613
630
628
607
614
618
620
615
623
640
635
635
622
618
621
628
625
624
637
639
617
620
634
617
630
622
639
622
635
635
629
628
626
636
615
637
628
625
617
624
626
625
630
637
645
643
631
621
621
619
620
625
630
626
628
619
635
633
622
640
643
635
634
623
627
634
615
627
633
636
631
627
613
622
621
637
639
641
641
640
621
617
618
627
626
628
628
625
633
625
617
628
637
644
641
627
617
627
628
619
629
631
637
627
610
617
621
621
628
643
648
648
646
619
631
630
623
627
634
635
625
625
638
636
630
634
640
637
647
633
619
626
619
635
645
642
637
621
629
631
630
637
634
648
645
640
633
629
626
623
630
641
629
623
625
633
635
643
637
650
651
637
645
636
635
636
633
622
641
632
632
627
639
625
635
650
648
655
645
643
630
632
641
641
640
636
634
635
633
633
632
623
641
648
655
655
648
632
625
629
641
640
648
632
621
627
655
636
637
640
643
651
644
643
637
632
646
631
643
640
649
636
643
636
639
653
649
650
644
639
645
638
632
638
637
644
647
632
636
630
638
628
653
658
661
640
631
637
633
633
643
633
640
635
637
645
641
635
635
644
653
648
641
631
635
632
639
652
651
639
636
624
640
633
636
637
642
655
648
639
642
634
637
623
641
640
627
629
629
632
639
640
657
648
651
638
626
634
634
631
634
640
645
634
645
636
625
629
639
644
649
650
632
637
629
639
643
643
640
631
638
642
626
637
633
637
651
661
654
639
632
634
640
645
644
651
635
637
634
640
644
639
649
648
645
651
650
637
639
648
636
645
644
645
642
643
643
639
643
655
663
651
646
638
635
631
638
633
650
657
649
647
651
633
627
624
650
652
641
646
646
647
646
634
649
639
638
648
649
638
632
639
636
652
655
649
652
637
641
636
651
645
642
639
643
625
654
646
644
655
660
658
645
634
634
644
643
636
653
653
650
637
632
640
634
650
665
657
652
650
637
638
638
651
648
648
648
647
637
636
635
634
669
659
658
656
636
636
639
639
637
656
648
657
653
636
641
638
649
649
654
667
654
639
640
645
648
640
647
660
656
644
644
641
636
641
650
658
659
652
640
645
640
641
659
650
644
627
642
644
642
647
656
668
654
646
650
642
646
652
655
648
649
638
639
625
655
655
662
660
647
652
651
636
640
642
653
652
658
655
644
639
639
643
657
660
658
660
655
651
643
639
633
643
651
656
655
634
638
639
637
655
651
668
662
655
648
645
649
662
647
646
651
658
654
638
651
646
654
656
664
664
656
658
642
650
651
651
653
647
665
657
644
655
642
653
661
658
657
660
667
666
646
649
649
645
642
649
652
652
661
650
662
660
663
658
647
657
650
658
652
651
653
656
646
655
654
650
651
675
663
666
647
643
650
656
656
658
659
654
653
658
640
648
646
656
663
673
672
662
633
644
650
647
645
657
655
653
640
642
641
657
664
661
677
658
650
641
649
641
648
661
660
661
635
641
640
652
657
667
667
655
658
647
648
647
642
644
643
668
653
643
642
659
655
659
656
674
653
643
653
659
664
656
657
656
661
625
646
648
655
644
664
670
668
654
654
645
661
667
655
656
644
645
643
650
650
656
662
667
674
659
658
648
663
666
661
651
653
663
652
652
657
650
658
650
670
668
658
656
650
645
646
655
658
657
662
643
653
638
638
653
658
668
681
663
653
651
655
655
663
667
659
652
655
651
655
661
660
668
669
673
662
656
647
647
653
659
662
650
660
648
652
656
665
666
661
662
666
663
670
652
651
654
651
654
665
651
650
657
656
655
664
685
672
663
649
654
662
650
662
665
671
647
644
651
651
655
663
668
671
681
654
656
657
655
665
659
675
655
653
644
646
660
655
663
684
679
667
644
656
653
652
662
674
661
658
657
652
651
655
652
671
682
655
661
659
653
657
656
662
660
661
669
654
643
645
653
665
661
672
662
663
661
658
672
671
651
649
663
663
659
658
662
654
666
675
670
664
667
658
644
667
657
660
668
658
656
667
659
648
663
657
667
683
672
657
657
666
658
663
666
665
663
653
648
654
659
664
690
674
665
666
664
661
672
655
661
666
650
655
650
655
646
652
667
665
671
668
654
651
649
653
664
670
671
669
665
650
652
649
657
649
674
666
672
662
652
659
656
656
655
663
654
644
652
649
668
654
682
682
672
659
655
658
664
671
657
667
660
674
659
667
665
668
670
680
684
689
679
680
684
687
695
706
689
673
669
689
693
696
692
706
702
706
702
690
689
676
673
692
692
693
675
666
659
666
668
672
672
649
650
635
613
623
615
620
620
622
600
593
571
600
621
636
648
657
667
656
640
650
651
670
655
656
649
657
642
645
651
649
653
679
676
666
665
644
649
661
663
661
666
665
660
664
662
655
667
664
687
681
674
665
657
653
653
667
666
658
671
659
650
661
667
658
669
670
667
669
665
680
667
662
644
656
652
654
659
653
650
671
671
662
676
670
653
650
646
663
663
655
669
664
663
651
654
650
650
651
660
662
666
659
667
653
659
666
658
657
668
649
657
655
655
665
670
665
678
673
650
661
674
653
654
658
665
668
653
654
662
665
663
659
674
672
669
664
646
655
668
663
664
663
662
656
650
647
654
659
662
662
674
677
654
650
663
660
651
665
659
684
656
660
653
668
672
665
671
669
650
653
658
662
665
658
675
672
649
634
650
656
658
670
674
674
671
658
651
660
667
660
666
654
657
654
652
646
657
677
677
685
667
665
653
661
658
651
663
669
659
650
655
654
666
665
666
666
665
654
655
650
655
650
671
664
670
652
672
641
644
659
660
657
674
673
668
659
652
668
665
650
654
658
646
646
653
656
647
673
680
670
666
666
664
656
652
661
659
654
648
647
658
654
667
666
659
680
664
667
657
651
657
653
663
659
661
660
649
648
653
653
659
654
669
670
665
640
654
655
654
666
656
657
658
656
655
660
652
664
673
667
670
644
646
641
650
659
653
665
660
661
641
645
641
647
655
666
661
663
653
653
656
638
627
651
662
648
643
646
644
651
641
661
674
666
664
660
648
646
650
646
643
654
651
648
653
662
651
663
668
659
661
647
642
643
654
648
666
663
644
640
633
648
640
650
651
665
665
654
646
648
646
641
648
662
644
647
645
644
647
642
646
650
652
652
660
649
641
646
650
647
654
659
647
651
632
638
655
654
654
650
648
642
646
649
642
643
638
648
679
649
638
638
634
646
660
665
660
659
636
634
643
633
641
652
647
644
645
649
647
641
642
650
657
654
653
640
639
635
647
653
657
644
633
630
644
630
640
648
645
662
668
660
636
646
642
638
642
655
650
648
640
648
646
649
649
654
654
649
639
651
639
644
637
650
650
645
641
640
640
638
622
656
646
647
645
653
637
635
646
648
635
650
633
638
634
638
633
641
646
646
649
641
624
640
632
634
636
653
636
633
631
627
635
643
642
648
645
647
635
637
636
639
627
641
629
624
626
625
623
634
633
646
655
643
633
637
636
630
632
638
646
643
643
614
633
628
636
635
660
665
643
646
633
621
641
643
645
636
648
620
630
624
639
634
635
623
646
638
635
633
628
623
639
636
639
638
633
619
632
622
629
646
650
635
638
637
654
643
627
628
640
630
632
622
634
630
623
640
645
635
632
631
624
637
627
616
630
634
631
631
618
632
629
624
644
645
635
634
631
614
635
623
632
644
619
623
625
631
623
623
633
638
638
646
637
621
621
621
623
629
623
642
615
616
619
632
620
637
624
648
630
625
628
627
623
628
608
652
623
629
626
620
624
625
618
640
633
630
628
618
617
615
624
625
633
628
625
624
623
628
628
635
639
629
641
623
622
608
624
625
632
623
619
624
633
624
616
624
638
634
631
619
620
621
632
623
620
614
633
623
615
614
628
624
632
627
634
639
621
614
633
623
627
615
632
624
619
607
629
607
617
623
637
629
637
623
622
602
620
616
626
624
626
619
628
612
612
631
625
638
629
621
629
622
620
612
618
618
619
632
602
622
618
623
621
640
625
632
622
620
613
628
618
620
624
631
631
614
612
625
616
638
630
625
628
624
622
633
612
622
618
619
616
610
608
620
616
622
628
634
635
622
615
626
612
615
610
617
615
621
609
626
607
629
602
629
631
632
616
621
605
615
610
619
622
621
614
622
600
615
611
622
621
635
628
611
609
617
614
606
616
622
607
613
614
618
608
615
630
635
618
619
601
614
613
607
620
620
617
608
616
623
613
613
619
629
623
633
620
612
609
608
614
614
623
616
614
606
611
609
613
615
631
633
626
612
630
608
627
614
613
611
619
607
613
613
603
614
630
620
628
618
612
610
609
606
612
612
622
615
611
609
618
611
618
622
628
614
613
617
617
612
615
613
608
616
618
604
607
611
608
627
618
623
618
611
601
622
609
611
613
620
609
626
608
617
602
608
622
627
620
624
612
617
605
610
619
616
620
611
604
618
620
615
609
625
629
633
619
634
623
618
607
634
638
630
634
634
634
647
639
642
646
659
636
650
643
645
642
648
637
646
634
634
619
645
625
636
640
632
629
613
608
597
590
594
585
588
586
565
565
558
559
555
533
543
554
574
603
585
588
623
589
592
611
592
599
596
604
598
605
613
610
615
613
593
613
594
608
619
618
610
609
594
612
606
601
629
623
631
618
605
632
605
613
596
599
626
615
602
629
604
615
594
604
636
621
611
634
592
618
603
606
620
606
589
599
593
615
611
620
620
611
619
611
598
639
592
622
600
607
615
611
609
618
597
602
597
608
627
604
639
600
598
607
598
606
619
605
620
586
593
624
601
620
614
606
616
597
610
638
597
621
604
619
637
603
604
586
580
607
604
622
636
618
618
591
606
613
597
609
603
602
616
595
613
620
595
619
604
617
630
592
631
600
607
619
596
618
629
592
604
591
601
616
616
626
604
614
613
594
598
619
615
624
604
609
615
598
612
597
621
623
616
626
629
600
648
601
616
626
610
607
618
607
619
589
614
625
611
640
597
608
623
601
606
611
616
621
598
617
602
605
614
602
631
642
599
625
629
618
607
610
629
627
612
610
595
614
613
593
619
626
627
626
604
615
620
599
603
595
615
617
599
614
623
611
614
608
637
648
605
627
592
617
614
603
615
621
616
610
592
614
613
606
629
597
622
625
602
616
615
604
617
604
601
617
609
621
587
628
631
615
648
641
626
619
600
614
618
605
611
579
605
604
606
604
601
617
619
603
615
606
605
606
589
604
613
600
604
601
600
607
598
619
641
622
634
594
604
601
598
601
613
596
608
589
607
612
604
595
609
630
613
606
599
613
608
609
601
606
609
604
602
607
627
605
602
619
636
629
610
602
619
607
600
606
606
609
607
593
600
604
606
616
608
622
626
619
595
606
611
608
617
614
603
601
601
606
613
621
617
632
621
616
596
604
599
602
592
609
601
602
601
595
610
597
605
626
617
612
617
606
609
596
595
599
611
620
614
618
612
615
615
626
625
625
617
611
617
604
605
605
608
604
600
598
596
604
607
594
619
626
606
615
612
604
606
604
604
602
607
609
611
620
614
612
617
615
609
610
603
608
609
604
600
600
594
594
598
597
593
604
607
603
609
619
606
611
601
600
594
600
613
593
618
613
619
613
611
614
606
613
619
603
596
609
610
598
594
601
600
595
605
596
601
600
596
605
617
615
605
599
602
600
588
593
616
622
622
619
626
617
597
598
595
613
616
609
602
613
599
592
596
588
589
602
609
614
592
594
610
612
614
610
597
598
602
602
587
606
613
616
606
615
597
587
600
607
598
610
605
585
595
597
590
583
594
603
600
582
595
597
594
596
591
611
613
607
596
595
593
606
599
606
612
610
612
586
591
580
591
612
596
606
594
596
596
586
588
589
589
593
604
577
601
581
593
603
605
615
594
609
599
585
605
604
579
617
616
586
589
578
584
597
613
608
602
598
588
582
591
585
595
596
580
600
596
589
600
588
597
601
594
596
592
612
623
568
606
602
623
608
590
588
590
567
598
598
611
612
589
596
589
596
583
576
596
588
576
587
595
599
590
585
600
594
601
599
591
609
592
571
603
589
586
584
581
592
585
584
605
589
604
600
574
596
576
598
579
576
600
591
582
593
588
581
593
580
605
593
596
607
575
609
577
565
606
587
586
578
575
586
571
576
596
583
595
603
570
582
568
578
579
579
581
582
576
584
567
581
594
590
597
594
586
592
570
596
585
594
588
575
579
585
579
573
567
588
594
588
597
597
590
586
566
577
577
575
578
578
579
577
577
579
590
604
591
571
605
590
564
587
571
581
582
569
572
580
585
578
583
600
583
573
589
584
581
582
569
588
581
581
585
573
577
575
562
583
589
602
590
566
601
566
594
579
581
585
577
571
584
576
583
583
571
590
579
585
588
579
579
565
572
579
572
585
585
571
566
565
611
580
585
614
586
575
588
564
587
575
562
581
560
566
576
571
591
586
573
580
566
574
573
573
573
564
571
584
551
583
571
566
578
576
591
579
572
588
569
556
570
556
587
573
573
581
558
600
559
565
583
582
572
578
577
591
571
568
569
560
607
584
564
592
583
575
585
593
615
604
598
615
607
630
599
580
600
601
594
604
592
616
597
601
623
608
630
598
597
580
587
577
581
566
590
561
563
569
546
564
546
551
551
545
534
530
522
504
496
505
527
537
567
544
558
558
555
565
573
574
579
568
568
559
563
577
571
574
565
559
563
572
566
577
575
583
590
571
572
578
567
572
573
569
582
577
577
569
569
566
569
584
580
585
588
576
574
563
569
577
567
566
564
572
563
567
567
595
578
578
576
567
582
566
564
570
573
570
567
572
572
565
564
564
567
593
583
577
572
569
568
559
568
572
571
563
565
571
560
576
572
580
578
569
573
566
581
565
564
578
576
574
572
574
572
566
571
576
577
591
577
574
567
560
561
557
572
576
564
573
570
571
561
571
591
590
585
575
569
566
572
554
561
568
563
565
569
565
567
558
572
567
556
575
568
566
565
553
565
554
576
567
555
563
567
551
555
573
568
584
576
568
556
562
559
563
577
571
567
562
562
562
564
570
583
577
575
572
569
562
560
576
563
571
574
572
573
574
565
557
568
580
586
579
580
583
561
567
572
568
576
571
572
576
575
573
562
588
582
580
570
580
574
578
572
568
558
559
578
573
576
574
565
565
583
587
576
572
582
575
564
568
572
581
578
571
566
570
562
572
580
581
585
574
574
583
584
561
562
573
574
570
569
576
581
568
572
580
587
580
579
586
576
580
557
562
581
575
571
567
582
568
565
567
583
585
591
574
571
583
568
577
569
569
555
562
569
581
576
569
577
582
575
583
565
571
574
554
554
568
570
567
574
568
556
563
558
570
586
579
569
568
572
565
568
559
559
564
560
563
560
560
560
570
573
564
569
566
569
566
565
560
564
571
565
562
559
561
557
556
569
581
581
583
561
566
564
558
568
574
576
580
554
568
562
554
561
571
587
581
575
571
567
572
558
569
568
575
573
573
572
569
558
563
575
582
591
573
577
569
554
562
574
576
570
578
563
576
567
567
577
582
571
573
580
570
587
560
569
577
571
581
567
569
573
568
566
579
582
580
577
567
571
557
563
564
570
580
579
565
568
572
560
571
578
584
585
569
570
572
566
569
574
571
572
570
581
576
582
570
581
584
580
578
576
574
572
564
560
570
577
583
567
565
582
574
564
581
583
590
580
579
570
570
570
578
583
572
577
569
578
575
562
579
578
585
588
572
571
579
570
571
580
573
588
583
568
568
578
570
580
593
590
594
583
571
575
567
576
573
586
573
577
571
577
570
575
585
585
592
568
576
581
583
566
569
581
570
582
575
574
574
582
574
581
593
590
576
572
578
559
570
580
587
582
578
572
570
579
572
580
588
579
576
568
588
576
570
576
579
575
572
584
571
573
565
575
579
586
593
584
577
570
567
567
577
579
589
587
584
577
572
567
578
586
587
576
580
578
584
573
585
586
575
576
577
582
574
576
576
587
579
584
592
577
578
575
574
573
584
580
578
582
576
588
560
589
583
590
586
592
575
570
580
570
578
588
578
575
574
582
578
576
574
582
581
583
583
583
595
566
574
573
575
581
579
572
585
580
573
582
589
583
582
580
569
575
580
577
576
588
586
577
573
576
582
576
590
599
581
586
585
583
579
571
571
573
582
580
582
577
582
572
571
588
592
594
583
582
578
571
580
576
580
580
578
583
576
583
579
582
588
588
586
576
589
586
571
581
579
575
574
581
569
582
581
576
590
585
586
583
587
584
577
571
571
586
587
574
588
570
576
578
583
588
591
594
576
583
580
570
580
588
585
583
579
581
576
575
574
583
582
590
594
580
580
586
564
568
588
583
586
580
581
575
576
581
586
588
597
583
577
580
583
571
579
584
589
582
580
580
591
574
577
582
590
586
578
582
582
579
578
579
584
581
568
582
574
569
569
575
583
594
586
576
575
579
573
581
583
581
574
570
575
578
576
581
577
581
583
588
580
577
574
564
568
578
583
586
591
578
581
577
579
588
594
583
582
578
576
577
585
590
582
589
583
579
583
586
591
598
605
606
606
601
613
603
605
607
598
605
612
610
613
617
604
606
632
611
623
608
608
593
598
601
597
602
595
584
572
570
573
566
557
567
559
549
545
541
538
530
520
509
497
532
534
545
561
559
560
569
574
576
580
571
567
572
570
573
580
580
572
579
571
572
569
570
583
591
587
574
569
583
576
580
583
575
585
581
572
580
579
575
579
583
589
593
580
582
579
573
569
576
583
582
581
575
563
576
574
572
594
586
572
579
580
582
575
584
585
587
570
573
571
574
589
569
592
585
576
574
576
578
575
566
571
579
588
574
577
580
572
567
568
588
584
576
572
576
577
567
569
581
579
584
585
570
566
571
580
580
580
588
580
580
575
582
568
568
580
580
576
577
574
580
570
581
572
599
585
582
574
580
580
572
579
583
572
577
577
575
575
577
575
592
584
584
573
577
574
576
580
571
585
580
574
576
584
573
574
593
574
590
590
577
578
576
574
568
585
591
579
571
581
581
573
579
589
590
590
581
582
569
580
571
578
588
582
574
577
571
584
576
569
591
587
592
585
582
585
574
576
573
580
578
575
582
582
572
575
593
592
596
581
581
587
571
569
580
581
581
589
570
578
583
571
579
595
590
583
583
582
577
582
564
575
586
580
582
578
581
577
571
578
583
588
585
582
580
582
578
574
585
587
584
584
565
580
581
578
579
599
593
585
580
571
582
573
570
580
585
591
582
579
577
570
574
583
592
592
587
576
582
572
565
579
576
581
578
575
580
575
575
570
589
583
587
578
579
578
572
574
580
587
570
577
580
573
573
574
560
582
587
581
584
570
575
559
576
584
582
592
579
579
582
569
568
583
580
578
585
574
581
572
569
578
581
581
575
582
579
569
573
588
585
582
593
577
580
579
569
573
586
584
580
581
575
565
574
582
582
580
583
591
579
583
581
571
576
573
579
583
582
577
578
572
571
587
587
585
587
574
575
585
575
578
579
579
574
566
576
577
576
577
592
589
584
567
562
570
582
571
587
593
578
573
574
578
573
572
580
591
582
583
588
578
581
573
579
580
585
582
576
577
578
567
584
590
590
585
585
575
582
568
584
584
579
585
584
573
571
582
579
578
599
586
576
574
584
577
583
581
580
580
585
572
572
583
578
576
575
588
590
591
575
578
575
570
575
587
576
589
587
575
569
569
581
586
598
587
576
579
578
572
581
573
585
585
579
575
583
582
570
574
594
585
586
577
581
578
573
573
582
586
582
588
577
576
570
576
576
588
593
588
583
588
577
571
574
575
582
586
580
592
591
576
572
583
576
585
587
580
579
577
570
577
589
579
579
586
583
577
576
578
588
598
588
573
570
578
572
578
577
588
583
590
581
588
577
581
579
578
588
593
583
582
583
580
568
584
591
583
582
608
579
577
584
585
591
597
577
579
570
577
572
579
587
592
563
583
576
587
572
581
582
586
585
572
580
583
587
580
579
568
573
586
579
575
580
577
592
592
590
584
577
582
587
579
580
588
581
591
584
579
582
574
578
588
594
594
589
585
575
582
575
577
585
583
583
579
583
580
576
576
584
594
601
590
583
579
584
575
581
584
588
584
576
585
581
585
581
581
589
585
583
583
583
576
579
582
588
582
582
586
583
580
576
588
592
593
590
580
578
580
574
588
586
587
587
588
579
585
575
580
596
583
587
582
592
587
586
583
583
583
581
577
583
589
583
590
581
596
597
594
586
581
584
584
590
591
588
594
576
578
578
577
582
603
593
597
590
589
590
580
575
584
601
594
588
588
581
575
586
589
598
603
595
594
589
590
580
589
583
585
591
586
592
589
583
581
597
602
600
593
589
583
582
577
581
595
599
584
583
584
585
585
588
587
596
590
594
593
599
587
574
577
587
596
583
585
585
590
585
588
586
597
598
583
583
588
583
573
599
589
587
582
589
580
587
587
586
597
593
587
591
581
586
583
597
589
594
594
584
590
586
580
582
592
595
599
596
589
589
584
582
591
593
591
601
587
597
606
593
597
612
612
627
614
616
615
611
618
618
620
614
614
624
620
620
615
626
643
620
637
613
624
609
603
613
610
619
607
597
586
595
574
575
575
573
570
565
555
548
543
539
546
523
514
530
536
570
565
574
575
581
578
588
584
577
580
585
588
590
596
573
595
580
582
582
586
590
602
600
596
591
590
588
588
598
584
598
597
599
594
603
582
592
602
601
601
593
596
597
600
589
599
590
601
598
591
595
612
584
581
611
599
600
585
595
601
584
587
591
593
596
593
587
597
596
591
599
606
596
600
591
591
603
585
592
587
602
592
607
589
588
586
588
595
612
604
602
588
590
601
594
594
591
602
592
601
585
595
596
592
605
595
607
590
596
588
583
586
603
597
600
606
595
592
585
593
594
610
600
604
594
599
585
591
599
598
611
595
607
596
596
586
596
607
615
599
608
611
595
597
600
601
600
612
590
598
601
610
585
613
614
613
608
603
597
599
593
595
610
601
610
599
601
601
609
586
607
614
611
604
598
603
608
599
605
604
618
598
605
603
604
595
607
616
608
615
597
603
601
600
601
607
601
607
604
594
607
598
609
599
611
619
608
598
605
601
606
596
615
614
604
610
606
607
616
597
612
615
609
611
602
599
603
603
605
613
614
617
603
608
618
584
601
621
619
608
608
609
610
597
610
612
616
612
613
602
606
607
601
602
620
618
612
602
598
607
608
607
606
608
608
609
609
603
598
601
609
612
620
613
598
600
602
605
607
610
604
602
612
608
604
602
602
614
618
614
604
589
600
603
600
601
613
608
610
608
600
601
604
606
620
608
604
604
612
606
601
604
609
605
608
594
601
605
605
600
614
613
611
613
606
600
607
601
612
610
616
610
601
598
606
600
596
618
614
621
607
608
601
609
600
608
616
615
605
613
609
607
606
611
622
627
612
609
605
613
610
611
611
610
614
606
604
608
598
610
617
623
618
621
603
609
609
609
609
611
613
610
621
599
604
604
608
616
616
612
614
624
610
598
603
608
607
621
609
604
604
611
602
615
628
622
618
616
610
615
608
616
619
614
618
606
608
608
604
611
623
633
626
621
613
610
626
612
610
620
627
621
608
604
610
609
609
617
625
620
621
609
614
612
611
616
623
615
619
610
611
612
611
617
617
626
626
612
617
613
611
619
625
618
618
613
609
615
624
609
613
622
624
623
620
614
616
616
616
619
621
616
618
620
615
606
614
623
627
624
624
610
612
612
609
618
624
622
620
619
616
615
613
619
623
616
623
613
616
619
615
610
615
627
624
634
609
604
609
616
626
624
626
625
616
607
619
607
610
619
616
619
625
618
615
608
617
625
635
622
619
614
613
614
617
615
624
631
621
618
623
611
619
618
632
628
622
614
609
612
621
617
621
628
618
622
606
620
616
610
625
633
637
637
612
616
624
614
623
629
623
627
618
616
618
614
621
618
628
618
613
617
610
609
612
625
638
619
631
612
616
619
623
620
624
627
627
621
618
621
620
614
630
630
618
622
616
621
618
619
624
635
636
628
612
615
623
612
627
613
629
627
626
628
633
624
624
616
637
622
619
620
617
621
622
623
621
633
624
618
626
629
621
618
630
632
622
623
618
616
613
612
616
623
619
621
621
630
626
626
620
631
631
630
616
623
623
626
638
625
625
636
633
631
618
618
621
629
631
632
626
609
619
604
618
618
634
629
626
616
624
621
625
619
630
631
630
624
612
623
601
623
625
627
628
633
616
616
622
635
628
633
629
630
620
619
622
611
629
627
633
623
615
632
629
619
628
631
634
638
625
617
621
614
624
620
631
619
616
622
620
626
630
636
633
625
625
622
623
616
620
627
624
635
618
625
610
620
620
624
633
634
640
625
626
622
629
615
618
633
631
615
625
622
622
625
625
642
637
636
631
637
624
632
628
635
613
637
628
621
625
628
623
637
648
627
634
618
636
623
622
640
625
628
628
626
624
627
619
620
628
636
630
627
627
624
628
624
629
631
636
626
622
633
622
622
623
638
646
636
648
631
625
619
620
630
645
640
628
629
627
636
627
629
640
647
630
632
627
627
623
624
644
633
636
634
622
614
632
636
633
657
652
643
640
651
649
634
645
663
658
654
658
645
671
665
657
667
679
668
668
663
662
656
659
675
674
671
667
649
650
656
645
637
655
651
647
639
633
625
606
627
610
603
591
606
598
592
576
572
565
579
596
605
613
621
619
616
617
625
636
633
632
632
621
630
638
625
646
616
630
631
632
634
632
649
658
639
647
621
637
635
635
641
647
648
650
637
655
634
638
644
647
641
636
630
641
645
635
632
643
651
649
633
638
635
642
637
640
648
641
651
640
635
635
635
629
668
649
646
640
627
642
631
653
641
643
643
633
628
642
641
638
638
642
662
639
649
643
632
635
644
646
642
636
636
641
634
639
641
653
644
642
646
626
634
638
640
652
650
656
651
641
632
638
638
643
646
642
649
646
641
636
654
651
644
654
645
644
642
634
639
655
648
662
659
649
638
643
645
640
649
656
653
657
653
643
632
627
645
656
654
666
668
648
651
644
642
670
652
667
655
647
661
658
651
665
659
672
657
651
664
648
655
653
653
671
669
656
668
660
656
653
663
686
663
672
642
642
665
644
652
679
662
673
648
656
681
651
674
664
664
682
680
650
656
655
673
651
661
685
679
661
654
648
665
663
681
695
675
663
652
651
673
644
668
665
664
679
646
656
679
659
666
674
669
691
656
668
659
648
677
665
673
673
658
660
653
649
685
660
690
666
659
673
651
673
691
669
683
660
671
686
648
670
656
661
685
674
677
665
649
661
659
678
683
670
681
684
648
673
655
659
676
669
682
661
669
668
652
677
690
662
696
664
667
676
656
667
661
670
692
658
661
663
648
679
658
663
685
662
670
663
669
665
657
685
688
679
679
656
661
694
657
689
657
669
678
658
678
671
657
666
654
685
687
679
675
646
660
662
657
672
686
669
674
659
664
670
665
687
670
671
682
656
674
680
678
698
668
671
667
654
670
649
664
673
681
686
688
665
678
654
662
678
666
683
662
680
666
675
678
681
685
690
665
669
686
671
685
645
693
689
674
688
669
658
678
668
665
693
694
691
697
670
668
675
667
678
684
684
681
684
671
667
678
679
683
697
682
697
694
676
698
671
682
688
673
688
666
665
672
678
691
688
690
687
657
660
698
673
691
696
692
679
668
677
666
680
686
675
696
715
684
693
675
685
676
677
693
703
680
678
663
673
668
691
693
693
694
702
666
684
673
665
670
690
690
679
666
681
677
687
686
697
702
709
686
705
682
689
681
688
687
682
670
675
671
673
684
701
684
695
686
680
672
676
690
677
690
704
696
686
665
673
665
680
701
693
714
710
691
680
685
685
687
678
688
670
688
683
695
690
681
702
690
684
685
679
698
680
700
698
699
694
676
689
680
686
706
700
717
711
698
705
678
684
692
679
696
696
698
685
674
684
689
703
699
698
691
691
688
676
680
692
688
695
684
665
687
678
692
706
719
713
715
715
684
688
670
704
690
690
698
688
679
677
684
691
705
700
705
712
696
670
683
700
681
681
690
705
689
681
689
691
694
696
704
713
706
683
677
687
696
700
694
688
693
681
682
685
685
692
694
697
698
692
685
695
689
685
690
685
702
691
695
677
700
708
714
710
699
694
704
689
681
690
689
690
697
685
705
680
667
675
696
690
698
702
690
696
681
682
696
694
692
684
694
696
690
699
713
713
717
708
711
693
681
685
684
682
683
688
702
698
695
692
695
685
695
702
706
699
705
684
677
689
690
694
703
695
690
697
695
708
702
703
702
704
714
684
664
682
684
696
691
707
689
694
695
704
668
699
710
702
705
699
678
681
691
691
688
701
710
693
717
695
701
705
681
705
703
713
693
691
690
692
681
692
703
706
693
680
687
685
686
690
706
706
689
680
691
684
692
694
695
700
704
702
695
686
708
686
690
713
703
699
687
677
677
689
671
694
700
695
695
678
700
691
701
703
691
701
708
661
706
672
697
700
673
714
693
714
715
681
699
702
687
703
681
690
688
675
687
689
707
697
694
697
684
684
686
689
695
693
679
687
670
684
705
686
684
683
678
698
678
714
687
680
696
689
704
693
682
676
684
681
672
679
701
687
676
701
692
698
697
682
693
697
682
701
675
689
697
676
716
696
719
697
675
693
690
685
714
698
719
721
690
710
699
748
710
712
719
703
693
716
709
735
721
731
733
735
741
709
696
727
706
700
721
704
721
691
673
696
671
675
685
658
664
650
631
644
636
663
623
617
621
605
621
658
649
670
681
663
693
673
679
678
658
692
667
675
693
652
686
673
660
693
675
710
698
684
697
671
663
682
678
699
692
678
687
679
689
673
674
695
698
689
696
679
688
672
678
685
682
722
680
680
690
663
665
681
683
702
686
682
684
658
688
664
684
701
681
667
690
663
692
679
685
694
693
709
673
658
673
663
678
685
682
688
670
662
666
667
702
678
677
705
678
670
668
644
678
678
673
680
673
701
659
655
687
674
665
687
695
682
663
660
663
663
677
683
679
682
679
655
667
682
685
675
683
685
671
661
681
659
677
677
669
685
683
680
659
663
682
680
683
690
672
679
658
670
675
664
698
679
674
680
664
670
664
681
682
689
678
679
668
674
662
663
678
682
680
678
677
670
672
661
668
684
687
691
666
679
670
677
672
678
682
660
675
679
672
677
669
676
680
680
684
669
672
667
676
667
667
673
671
674
673
668
666
670
670
677
685
680
664
664
663
677
681
682
672
673
665
684
657
669
669
683
684
673
681
663
660
668
663
674
666
671
677
663
662
664
667
675
675
684
684
671
649
668
667
665
671
679
677
673
656
663
670
667
660
672
672
670
662
660
664
670
670
687
678
660
651
660
659
669
666
671
674
671
649
650
656
656
664
669
673
674
665
650
656
661
661
655
679
670
669
658
648
648
654
665
671
659
666
652
641
655
649
659
670
673
675
653
654
647
652
649
658
659
656
653
648
645
667
651
660
660
666
665
647
653
655
650
662
660
667
654
664
662
648
656
654
650
656
663
666
649
644
656
651
658
664
655
662
658
655
644
656
662
659
670
657
651
657
649
652
648
656
663
660
657
664
659
657
651
647
670
658
659
655
644
646
652
651
651
655
651
667
651
633
649
642
660
664
656
665
661
645
659
657
648
646
653
664
657
659
635
645
646
656
648
669
660
627
636
641
641
654
644
657
654
656
655
638
651
649
656
658
659
643
649
637
638
643
652
664
655
656
658
636
647
641
650
652
667
667
641
645
649
636
633
651
651
657
649
643
640
646
661
640
663
658
652
637
633
637
643
635
657
655
640
654
640
640
638
649
652
648
666
637
636
640
651
633
650
627
639
645
642
640
635
650
648
652
643
637
644
639
642
640
646
648
646
644
645
634
639
640
637
651
651
663
652
642
658
637
635
634
644
648
639
642
623
637
635
634
658
651
652
645
632
631
638
643
635
628
647
647
633
633
638
648
652
653
643
634
628
628
636
640
638
660
648
649
643
640
632
636
642
636
649
663
647
638
642
630
631
645
643
646
636
653
635
630
635
635
634
638
648
649
634
633
642
631
645
630
639
638
633
630
637
634
647
640
647
635
633
627
634
630
630
632
638
638
633
624
633
629
638
638
641
655
640
634
629
629
628
623
650
640
626
636
627
629
628
629
636
644
647
634
629
635
632
631
631
636
637
633
626
625
623
626
632
634
642
636
634
628
635
632
639
623
634
640
627
629
624
626
620
626
646
647
632
645
624
627
620
629
631
640
624
630
617
632
619
621
639
639
644
637
626
614
622
625
639
634
628
616
621
621
620
622
616
629
636
633
638
626
626
614
620
630
628
639
621
615
621
629
637
627
636
639
627
627
623
624
629
623
636
633
620
624
621
623
624
623
636
644
625
633
608
623
615
624
622
634
634
627
611
612
609
614
619
626
641
637
629
610
615
618
608
619
629
613
613
615
604
614
622
613
628
632
627
610
623
621
611
631
618
615
622
602
613
628
631
617
634
641
614
623
619
616
623
616
609
619
633
609
609
604
608
617
613
634
630
621
614
607
616
626
621
624
613
610
622
609
618
614
598
619
617
617
611
604
607
616
607
610
619
622
607
604
615
611
616
607
607
613
613
617
614
616
614
622
615
603
616
620
611
609
617
617
609
621
621
616
613
614
611
610
608
607
620
616
615
610
623
620
623
618
628
644
644
633
634
625
636
643
643
648
645
650
644
641
642
637
648
661
652
654
651
630
637
629
629
636
637
628
621
607
604
604
607
603
606
601
597
574
568
559
560
561
559
550
541
552
569
591
591
584
600
591
600
591
590
603
603
601
618
614
617
612
600
595
596
598
614
613
613
612
601
607
596
612
613
611
608
620
609
609
607
595
607
616
626
607
605
603
607
604
596
589
609
611
601
612
609
600
608
605
597
601
610
603
604
603
591
604
608
598
599
600
598
605
604
604
614
628
608
614
606
596
603
597
600
608
608
605
604
602
606
594
606
605
609
613
608
603
607
600
602
600
599
608
601
595
600
613
598
592
618
612
609
616
599
596
609
589
606
590
591
602
595
596
598
604
610
599
611
611
613
601
602
599
601
601
614
606
597
598
602
602
607
607
610
606
595
597
609
601
608
596
607
608
605
592
608
590
590
604
611
610
607
600
602
602
594
595
604
602
607
604
591
599
608
609
599
600
598
607
604
595
601
600
599
607
613
597
602
592
594
604
598
612
612
592
615
597
603
603
603
594
605
606
602
597
589
603
605
609
615
603
602
599
606
592
601
592
598
596
600
588
604
609
578
604
604
608
602
608
595
601
603
586
593
587
604
593
592
601
602
596
594
612
605
614
604
589
597
597
592
606
595
595
597
590
589
595
597
605
589
607
602
596
594
595
595
600
600
597
602
596
589
596
586
600
595
603
596
595
602
590
593
603
585
589
593
593
595
590
589
595
596
610
603
596
589
587
590
590
597
590
596
599
604
599
584
586
588
593
596
597
593
594
591
600
593
585
592
589
596
592
580
590
588
589
590
596
590
596
582
587
591
581
581
587
593
593
575
608
589
592
574
593
595
596
591
594
596
584
577
589
592
596
575
589
595
579
576
587
597
596
603
590
587
590
595
579
581
593
595
579
584
607
584
591
592
595
596
595
592
588
578
580
581
595
605
588
582
585
585
579
573
594
589
588
586
588
589
577
576
587
589
581
590
586
575
584
580
591
595
595
597
589
585
579
582
588
589
587
585
595
591
582
588
579
581
596
586
587
584
576
590
576
594
587
589
584
589
570
576
574
571
591
597
588
590
575
588
577
588
577
584
586
591
578
583
577
582
592
596
591
588
592
578
580
581
582
577
597
589
579
575
573
583
580
586
591
594
586
584
579
593
580
587
590
587
584
575
583
583
583
580
590
593
591
584
571
579
584
573
579
590
579
576
578
574
587
578
580
590
594
592
584
584
579
576
566
584
591
583
573
575
578
584
582
583
586
574
570
588
584
579
565
575
581
577
579
580
582
565
578
577
576
594
578
573
572
568
577
576
569
573
580
567
574
582
580
576
581
586
583
589
568
571
580
581
575
578
579
572
573
569
580
576
576
578
584
588
585
581
576
576
572
577
579
580
578
579
580
571
586
579
582
588
587
576
567
574
577
581
581
571
574
582
583
573
575
574
570
572
587
584
577
575
583
569
570
576
584
573
572
572
573
572
568
573
587
580
577
571
572
566
566
569
579
576
575
568
585
575
567
571
578
573
581
574
574
580
577
564
571
568
584
570
573
575
578
564
574
590
582
580
574
572
578
561
568
577
580
571
596
574
574
571
579
578
584
587
573
580
579
569
571
577
564
562
584
576
581
571
567
573
580
583
577
589
569
566
582
580
571
576
575
566
569
568
570
580
566
572
586
587
571
572
582
566
575
569
572
579
573
570
565
571
569
572
585
579
572
568
566
572
563
573
572
577
572
572
574
582
575
571
574
583
580
568
563
576
569
569
571
581
583
575
567
574
576
570
565
578
578
578
578
570
571
569
563
569
563
575
566
574
580
568
578
579
585
583
582
573
576
578
578
592
597
597
598
599
596
589
599
605
605
606
607
596
607
609
605
597
603
610
610
594
597
597
595
580
593
583
584
584
571
561
565
557
544
559
541
537
539
528
522
523
503
513
503
531
533
544
545
550
558
558
568
557
554
555
560
565
561
568
581
576
573
571
559
566
568
566
570
570
569
574
581
567
575
566
568
576
581
587
565
578
574
572
566
566
575
570
576
569
570
567
572
573
572
578
580
560
574
573
567
568
574
579
565
567
568
572
568
569
572
581
584
574
569
568
570
567
565
576
568
570
566
571
572
571
570
578
572
574
568
569
561
563
568
573
577
587
567
568
568
562
568
564
575
571
573
563
578
566
569
572
576
576
574
563
566
567
568
572
581
578
574
576
571
568
562
565
566
573
580
563
573
572
574
572
573
574
581
572
567
568
571
566
562
582
563
575
567
568
566
563
557
577
575
582
574
586
566
572
569
569
572
577
563
571
567
571
565
570
576
581
580
573
576
568
575
571
569
576
578
565
573
570
576
569
561
572
576
579
578
572
573
575
567
565
568
576
562
574
574
567
566
577
576
584
582
564
574
574
565
568
575
577
570
567
566
572
563
567
575
574
578
570
570
567
569
562
565
580
566
563
559
570
567
560
565
586
574
577
560
575
566
558
568
568
574
567
562
566
570
561
567
576
577
565
571
571
568
570
565
571
571
570
571
567
563
556
562
565
573
576
578
573
561
569
560
564
570
570
564
571
564
561
560
561
569
577
582
582
567
565
566
562
564
562
566
559
567
569
570
564
565
557
575
571
567
559
568
571
566
569
564
561
559
557
554
563
567
561
571
580
575
566
562
559
560
568
570
567
564
555
558
558
568
564
569
569
570
561
560
558
570
563
559
559
583
565
553
567
577
566
564
560
576
573
566
559
565
573
561
566
565
573
559
558
567
566
563
569
572
569
579
567
562
568
560
559
566
576
561
570
562
572
563
554
562
574
582
566
564
569
566
565
563
560
562
561
564
559
573
562
563
569
562
580
569
571
572
569
555
568
566
558
575
568
567
568
562
560
565
578
563
580
565
554
563
564
559
566
565
561
566
564
564
558
565
559
572
574
556
554
563
563
554
563
567
565
567
551
555
565
565
554
561
568
572
570
558
563
556
554
568
577
573
564
558
563
557
565
564
563
572
576
558
559
554
557
551
562
564
570
559
554
565
562
565
567
563
568
559
568
572
554
559
554
563
569
561
551
567
566
553
557
568
568
572
564
557
557
557
558
567
562
565
562
556
563
555
556
561
575
567
560
572
565
559
556
562
551
567
558
556
558
559
553
559
568
577
579
561
555
563
556
557
562
562
559
558
557
558
564
557
570
561
561
564
569
554
561
563
562
568
552
555
560
559
558
560
556
569
565
570
564
553
554
558
554
564
559
559
566
556
561
563
552
552
570
569
568
563
567
555
559
559
548
560
561
568
554
559
565
553
559
568
561
572
563
560
563
557
555
561
563
558
552
556
562
558
561
572
568
562
570
562
557
559
556
550
560
562
556
562
570
562
549
566
575
576
564
557
568
566
559
552
555
560
566
558
561
562
555
553
560
574
573
565
561
569
555
552
562
564
562
557
555
560
558
549
556
564
566
564
560
564
564
559
554
557
556
563
556
567
551
566
554
553
565
569
560
568
553
561
553
562
565
561
563
559
556
567
546
553
567
575
566
572
552
571
563
546
559
557
560
559
562
554
558
556
552
565
572
578
572
570
570
562
561
565
568
581
582
575
581
585
581
586
609
595
603
591
584
593
585
577
591
598
597
601
594
586
584
585
579
587
589
582
576
570
566
555
563
545
546
549
538
522
524
525
519
525
514
507
500
498
501
527
523
538
550
544
552
546
547
553
558
558
566
566
558
567
563
560
558
555
552
557
569
563
565
561
562
563
565
575
564
565
561
566
561
562
569
561
568
560
556
555
560
560
563
575
571
567
561
557
563
563
553
565
558
571
561
551
554
561
557
561
567
570
572
567
560
560
551
563
558
565
567
558
557
550
561
558
555
565
569
564
562
563
562
553
551
556
564
572
564
559
566
552
555
567
569
567
564
557
565
562
553
561
565
568
563
563
570
558
555
556
569
565
570
564
564
563
562
553
555
565
563
558
567
559
561
550
570
567
572
581
563
565
563
557
558
566
559
563
563
558
564
558
563
560
576
574
561
567
560
557
559
563
559
565
565
559
564
561
555
556
575
563
562
566
563
562
553
559
559
566
564
563
563
568
556
563
570
579
579
571
566
560
561
563
564
555
560
564
565
568
562
551
558
569
576
573
564
564
550
568
562
562
563
560
571
563
559
568
561
557
577
572
570
570
567
553
556
566
559
567
566
568
556
564
566
563
567
570
577
565
569
561
562
566
570
566
559
558
558
557
559
552
554
574
575
569
563
564
559
560
549
556
569
568
561
563
563
565
549
565
573
572
569
568
561
563
557
560
565
562
560
566
568
571
561
560
561
559
567
568
568
568
555
556
560
569
561
565
557
561
562
561
560
570
570
570
567
555
556
559
562
556
559
572
568
561
555
554
553
564
572
569
566
562
560
575
553
563
551
558
573
568
565
563
557
554
566
565
564
567
560
559
568
564
560
563
568
561
559
573
566
563
561
562
571
574
567
555
559
562
555
563
570
565
556
553
564
565
563
570
565
573
572
567
575
565
561
556
570
568
557
562
566
563
561
561
564
566
570
565
561
566
560
553
554
561
577
561
561
556
566
563
553
568
580
570
561
568
565
566
564
567
571
569
554
564
572
561
557
558
575
582
569
565
561
565
567
561
559
562
562
559
560
560
570
566
568
565
571
579
552
558
570
553
559
562
574
569
570
560
559
560
562
569
578
590
568
564
566
556
574
561
562
573
568
572
561
563
568
561
567
575
579
585
573
564
550
556
575
560
562
567
563
573
568
553
584
576
568
571
571
569
569
561
592
560
585
568
562
575
559
564
563
572
589
572
574
586
566
569
553
561
580
562
575
561
560
578
558
572
600
571
572
567
572
581
557
574
568
560
589
568
570
583
562
566
568
574
593
579
577
567
564
575
573
579
586
563
581
556
568
591
565
576
573
581
585
561
580
592
562
588
560
572
582
568
569
568
558
587
577
575
597
573
573
564
560
574
568
585
582
569
593
563
569
582
562
584
582
584
579
572
591
605
562
595
571
579
582
564
586
556
579
594
581
593
584
568
580
569
566
585
572
586
563
580
588
572
580
586
577
599
571
591
602
565
587
569
587
604
575
573
579
576
577
561
592
601
578
593
579
577
590
569
583
582
582
594
570
588
585
562
585
571
586
601
574
596
601
573
597
565
590
594
593
584
568
589
583
565
594
598
591
584
569
583
579
583
593
572
585
583
573
590
590
572
583
576
590
608
592
602
567
584
595
564
581
605
582
585
577
577
581
588
578
580
584
576
578
578
577
572
586
575
591
582
581
587
574
576
586
592
597
606
584
591
570
577
594
569
595
582
588
579
587
572
586
586
590
583
585
594
579
595
583
585
602
590
599
604
616
595
589
623
642
620
640
626
634
638
605
624
622
616
626
612
628
633
626
630
641
639
639
625
622
620
624
616
604
620
625
603
594
593
584
580
586
592
599
582
574
555
555
546
543
551
522
528
554
551
580
572
575
597
588
599
596
586
599
595
604
602
595
601
605
583
597
597
597
613
612
625
628
604
623
596
599
599
604
600
605
611
597
589
605
603
605
611
604
611
600
601
597
602
598
607
608
612
604
602
594
602
614
621
622
621
631
601
599
595
598
601
603
601
603
608
604
597
605
611
604
605
611
605
598
613
612
585
601
605
585
595
590
599
613
610
617
616
617
625
591
606
599
592
596
594
612
606
612
612
610
592
605
602
608
599
604
594
601
610
595
604
610
609
598
600
592
618
611
611
632
644
620
608
594
606
602
596
599
607
611
621
614
616
601
597
603
623
629
612
614
620
603
588
607
610
610
610
620
625
624
631
623
634
639
625
616
610
602
609
604
629
613
604
614
612
626
611
616
602
608
620
613
618
615
615
597
608
616
603
616
605
614
632
626
626
634
630
632
616
613
609
610
603
620
614
612
614
620
614
607
600
617
619
618
628
614
611
617
622
611
616
619
609
619
627
626
624
620
637
615
622
625
615
607
617
611
622
625
626
626
610
608
604
599
617
634
629
634
625
610
610
607
611
602
617
612
638
620
621
629
597
617
617
626
615
613
614
615
598
614
606
617
630
609
611
615
616
604
615
628
622
601
626
619
612
610
609
609
622
626
624
610
628
620
590
625
629
622
615
607
614
599
583
622
616
628
610
591
614
607
604
607
612
631
623
605
610
612
600
597
590
645
613
640
624
602
622
605
585
629
618
622
612
599
618
615
610
623
608
621
610
597
611
605
617
614
610
624
623
614
615
610
614
618
596
643
613
634
623
594
615
614
614
628
610
621
613
604
619
606
622
622
606
610
611
633
608
596
621
617
613
633
608
613
621
596
623
615
630
626
603
620
617
602
623
598
618
607
605
622
611
624
618
605
618
608
602
614
601
616
619
597
631
611
631
610
597
618
613
590
630
611
635
616
592
621
599
591
622
614
631
614
604
622
598
618
600
604
632
617
600
615
607
620
606
599
626
618
634
609
603
640
598
595
612
601
619
613
609
614
594
631
619
604
623
607
604
609
608
620
607
602
616
600
620
610
608
621
606
602
619
612
611
607
597
621
604
632
611
598
622
605
601
622
607
620
617
606
623
600
620
611
597
623
612
607
611
603
611
607
596
619
611
634
621
595
619
607
603
603
599
624
603
604
612
604
626
600
610
630
610
611
618
598
639
592
600
618
614
625
613
604
611
595
609
608
610
634
620
597
617
607
603
616
602
618
613
608
605
607
622
603
617
627
612
600
608
606
615
600
613
612
610
613
608
600
609
601
604
607
611
626
607
601
612
605
612
615
605
609
602
603
606
606
622
607
609
615
612
620
609
598
612
612
609
621
610
618
599
601
607
610
628
614
615
620
594
608
606
606
618
618
617
619
597
618
605
601
618
621
620
623
608
610
609
603
600
606
621
618
614
623
611
611
611
607
625
611
605
611
607
620
608
602
613
615
604
597
609
616
607
618
626
617
614
611
599
617
617
606
612
615
612
616
610
620
610
602
615
615
608
617
609
611
608
608
609
610
608
623
608
598
618
607
607
606
619
622
621
609
620
610
611
612
610
610
607
605
612
611
611
608
620
626
627
603
606
613
611
613
612
614
611
611
612
599
609
614
614
626
623
622
602
613
609
608
610
617
614
610
617
613
621
618
610
610
619
628
627
617
621
619
600
612
609
612
616
616
620
614
602
615
626
624
614
602
606
616
614
618
618
623
622
602
599
609
612
608
639
621
621
627
610
611
616
614
614
599
621
621
618
603
607
610
610
624
629
630
618
624
619
615
617
608
619
640
615
611
603
611
613
610
625
623
623
621
606
616
621
607
618
632
616
614
611
610
618
617
622
621
628
627
612
620
626
610
620
623
618
618
613
613
624
615
621
613
622
620
630
616
614
612
616
616
623
627
621
623
616
620
620
611
618
627
629
621
617
612
624
611
610
627
616
613
618
610
610
617
621
625
630
628
620
603
609
617
620
626
617
626
627
620
611
605
611
620
622
624
623
617
621
619
607
622
624
619
627
615
614
616
609
616
642
631
625
620
614
630
630
628
622
638
639
630
630
644
644
643
651
660
653
651
643
643
641
659
646
650
655
663
668
656
645
652
637
646
662
646
635
634
634
624
623
618
613
612
603
601
579
591
585
601
588
589
562
540
557
578
600
598
605
618
617
624
610
616
617
616
618
636
641
631
626
613
621
617
628
617
627
637
625
630
634
629
627
627
643
639
646
631
634
630
620
640
637
635
631
630
626
624
640
631
629
645
638
635
624
632
633
627
633
639
631
623
618
627
633
627
636
636
644
639
631
622
629
629
628
631
640
634
630
613
618
630
626
636
646
649
647
627
636
634
622
620
631
631
634
636
638
625
626
631
637
635
639
628
615
642
638
640
630
627
627
622
628
631
629
631
637
644
638
627
635
633
623
627
627
635
639
632
630
629
632
635
637
646
639
640
639
621
628
632
627
634
638
643
636
636
632
625
628
635
637
639
650
648
639
635
642
626
634
636
642
629
630
634
637
636
638
658
642
643
634
627
643
630
638
650
640
648
628
634
630
630
638
649
646
651
646
639
639
634
633
633
646
649
641
639
634
638
634
644
650
639
651
644
629
627
649
646
641
646
638
634
637
631
650
641
635
650
651
659
635
631
640
638
642
633
646
633
641
629
633
644
631
644
653
645
651
638
639
642
637
640
638
642
642
638
632
626
640
646
656
649
646
641
623
641
650
629
651
645
654
638
630
635
647
637
639
651
640
647
636
642
636
638
643
634
649
637
641
637
631
645
641
637
648
646
638
632
636
639
629
633
649
646
650
635
626
628
627
639
657
650
663
641
634
641
626
633
639
647
643
637
639
637
637
639
642
644
627
637
645
633
632
632
640
633
641
632
628
631
639
634
634
638
646
646
655
644
641
640
651
638
638
648
635
639
635
634
628
645
651
655
653
654
636
634
632
644
646
654
650
642
631
641
646
641
649
646
648
648
634
643
641
643
639
649
651
646
627
636
645
642
646
644
660
664
652
637
633
650
634
648
645
647
646
627
647
642
652
645
640
650
647
646
638
643
652
644
640
658
645
649
636
633
640
644
631
655
650
657
649
640
631
639
646
645
644
648
642
635
648
641
652
657
656
663
655
636
642
638
644
638
641
661
659
650
653
632
645
633
634
657
660
648
648
651
636
653
655
637
655
648
648
645
634
632
639
658
662
665
636
635
646
625
648
663
655
651
651
638
643
633
641
654
668
651
649
651
651
637
635
644
652
643
659
646
648
634
640
640
666
665
659
646
625
632
641
640
658
653
645
644
636
642
646
640
650
657
661
649
641
643
645
643
647
646
652
642
666
638
649
650
656
653
655
657
662
646
631
641
633
637
666
660
661
648
649
644
639
646
655
659
644
651
639
656
656
647
656
645
650
648
644
652
645
639
657
649
650
649
651
653
637
644
655
652
652
656
635
637
628
642
647
657
662
658
650
650
654
649
649
659
646
659
654
648
662
652
640
644
656
653
653
656
642
635
650
659
654
658
667
642
637
637
641
649
655
649
655
650
644
642
638
660
646
657
657
647
645
640
642
655
648
656
662
663
660
641
642
638
646
641
658
681
657
656
642
655
638
659
656
653
655
647
645
659
658
642
642
652
657
651
657
660
652
654
649
656
658
660
647
643
646
650
643
656
661
636
647
646
652
643
649
661
655
665
651
657
647
650
656
662
656
652
650
653
640
651
647
661
657
672
661
658
653
642
654
650
655
658
659
655
653
644
660
655
648
665
664
668
647
647
652
650
656
663
659
671
647
649
645
669
650
655
667
657
656
643
642
660
656
660
656
668
667
641
653
639
638
648
669
667
662
653
656
663
651
642
655
663
663
657
643
649
663
644
650
670
659
650
654
674
654
652
651
654
665
655
654
653
653
657
664
672
662
653
655
648
656
658
662
659
660
663
660
654
661
653
651
661
664
679
658
661
648
644
645
656
661
665
672
652
634
637
657
661
668
670
668
671
658
660
673
665
633
658
661
657
666
660
661
661
652
671
668
664
666
654
646
671
656
660
657
668
674
661
646
649
660
665
671
662
669
663
645
650
654
674
670
658
672
663
655
654
665
670
648
659
669
672
665
651
673
661
664
671
667
671
650
642
653
658
669
664
675
690
665
664
652
655
662
660
662
661
670
669
661
656
655
653
667
672
672
672
652
657
660
653
664
664
665
665
653
660
660
667
673
671
670
661
651
644
657
654
661
676
663
657
659
665
655
656
649
668
681
677
671
661
662
643
651
659
661
675
671
676
649
650
661
664
678
663
671
665
667
658
659
661
671
673
671
655
658
674
655
670
670
688
693
686
679
689
687
687
683
675
696
686
690
699
705
695
693
701
701
708
689
681
680
681
689
686
687
682
687
652
650
641
652
645
645
653
634
638
616
620
607
613
589
586
602
624
633
649
633
643
637
659
652
663
656
655
653
645
644
658
658
658
657
665
661
672
664
664
672
672
664
656
654
660
658
654
678
675
667
665
669
664
669
667
678
687
679
679
645
663
658
667
673
684
659
690
672
654
658
677
669
681
684
673
677
653
660
654
659
667
666
668
673
668
667
669
653
670
675
679
671
662
667
670
659
678
678
674
659
651
661
668
669
671
672
678
673
664
650
663
656
669
666
671
669
658
659
658
653
662
672
678
678
678
679
658
655
662
657
664
665
682
681
663
649
653
667
669
683
682
678
656
678
665
665
659
672
676
680
679
667
667
669
669
671
669
679
681
672
671
677
663
668
668
672
671
680
673
669
653
674
678
679
676
669
670
684
674
670
680
680
672
675
656
679
689
668
693
687
675
690
667
662
677
682
685
684
681
677
663
666
673
672
689
695
669
687
678
665
664
675
696
685
673
674
661
658
671
671
680
672
681
678
683
666
670
673
665
661
671
678
674
682
660
665
671
676
688
689
692
678
670
656
659
673
677
690
697
681
651
658
654
671
674
704
684
675
664
657
669
669
674
689
685
678
682
671
663
671
677
668
687
688
692
664
669
664
671
669
673
678
677
670
661
664
683
678
675
682
688
685
662
668
674
671
672
677
688
678
668
679
664
676
669
679
682
678
673
664
666
672
677
665
688
671
666
671
665
677
682
685
681
667
676
665
663
670
677
680
673
678
669
674
662
670
674
676
682
682
673
680
654
667
665
686
662
680
680
669
664
656
664
669
688
681
698
678
666
655
667
672
679
670
673
678
678
668
656
666
670
680
685
673
690
673
679
674
668
676
670
684
685
672
655
666
659
676
686
675
682
692
661
664
667
665
679
685
697
686
679
667
663
659
669
684
686
686
678
664
668
669
679
672
678
685
668
677
660
668
680
673
677
680
691
665
668
663
666
672
676
676
680
667
677
671
660
670
682
678
690
679
679
669
668
671
668
674
689
669
672
675
668
678
675
677
678
686
683
662
670
673
667
673
671
668
654
665
675
654
670
665
677
701
689
681
660
663
661
666
673
672
660
683
680
670
665
672
681
678
674
673
665
670
668
666
669
683
682
679
655
649
653
666
669
700
685
670
675
664
660
663
671
668
680
672
668
673
676
654
662
664
682
676
680
656
659
665
659
659
677
674
673
668
657
665
654
664
670
673
679
672
663
645
664
662
669
662
672
672
681
658
665
653
674
673
676
671
670
656
667
656
666
677
668
687
665
651
657
666
668
669
673
674
682
673
665
654
680
668
661
671
664
666
651
660
663
663
671
673
672
670
656
662
672
666
669
664
668
661
661
651
673
660
667
674
678
667
671
659
665
651
671
673
667
670
646
657
645
646
661
663
673
665
676
651
657
659
676
669
664
669
674
665
650
651
657
653
655
660
661
668
662
646
657
654
650
661
666
669
654
656
646
662
663
662
674
651
650
652
656
651
660
655
659
664
665
654
676
655
643
655
677
668
660
655
645
643
650
646
642
664
667
647
641
650
655
655
660
670
660
650
656
642
643
646
649
640
657
663
648
646
649
650
643
660
664
661
650
633
642
644
646
655
655
640
643
643
643
645
655
650
656
654
649
640
645
651
650
624
651
666
658
636
637
655
645
649
657
662
644
649
643
638
650
648
646
635
648
639
633
637
633
644
641
658
663
664
646
642
642
637
644
650
647
648
647
636
636
637
637
640
661
651
650
643
634
642
644
640
649
661
647
632
640
641
643
649
646
659
652
642
629
641
641
635
649
647
647
647
638
631
647
624
634
658
653
666
657
640
640
638
635
635
646
649
652
631
644
635
644
643
662
649
659
627
636
646
635
631
656
644
639
635
632
638
628
632
646
643
655
636
634
632
637
633
653
640
641
643
632
632
623
631
629
649
634
656
650
638
636
635
629
634
647
651
638
638
630
633
633
638
633
651
645
635
624
629
631
626
627
621
627
624
628
622
636
624
631
642
623
627
620
626
632
633
622
625
639
619
619
612
629
624
634
635
622
632
629
621
620
622
621
617
622
630
628
623
627
618
631
613
636
631
627
619
619
622
622
629
649
637
645
633
636
631
652
643
653
661
669
655
648
646
661
644
659
665
658
660
663
654
660
661
658
649
665
654
645
646
646
629
623
610
633
624
620
601
609
604
576
579
591
588
591
576
566
543
546
568
588
616
598
605
605
601
603
604
622
630
626
636
626
609
606
618
609
612
619
621
618
617
616
618
612
640
635
621
620
622
611
621
616
624
624
619
625
617
614
616
609
619
628
629
639
617
610
616
615
622
619
614
617
614
607
612
613
619
619
627
619
628
610
606
607
608
610
618
621
615
625
608
617
606
618
620
617
620
604
613
626
606
602
620
610
620
614
607
622
615
609
611
616
611
622
607
608
602
602
603
615
616
617
610
611
601
602
616
620
618
622
619
606
606
611
601
610
614
618
617
604
601
597
596
607
624
615
612
614
605
606
605
612
604
620
603
621
594
611
611
605
607
623
615
615
612
607
601
610
607
615
614
618
612
613
610
607
604
611
614
623
614
606
606
603
608
610
614
613
605
611
600
603
610
609
616
619
615
613
610
602
612
622
605
615
617
605
609
605
601
597
602
605
606
615
608
610
600
598
605
606
614
611
612
593
603
602
607
618
607
623
616
584
602
596
600
604
609
613
609
610
606
604
590
606
614
615
609
608
607
604
599
610
599
600
612
611
591
613
604
600
605
617
617
610
612
599
595
596
599
598
606
611
597
600
590
595
597
601
605
604
607
607
596
600
600
603
612
602
586
595
600
599
594
594
601
608
607
603
597
588
595
591
604
601
610
594
582
600
597
597
602
599
591
606
599
598
597
588
588
591
594
595
597
595
589
602
601
597
596
612
595
592
602
586
585
590
595
602
585
587
589
600
585
590
605
600
599
594
607
592
589
588
591
594
595
586
578
596
594
587
584
599
597
603
589
588
600
593
590
592
591
596
604
590
592
594
590
599
600
596
604
597
590
591
596
585
595
601
593
595
589
582
581
589
610
601
593
596
588
589
594
580
596
607
593
589
590
590
596
592
584
581
597
597
592
589
592
586
584
576
597
595
590
582
584
590
582
587
588
595
590
591
587
588
586
584
582
594
592
583
580
587
582
586
601
598
591
586
591
594
580
576
581
591
599
577
591
587
590
580
582
597
594
591
589
589
593
590
573
576
586
588
591
587
593
601
577
587
592
598
600
585
584
584
578
596
588
591
601
583
582
572
575
607
595
594
595
589
597
587
578
591
585
584
596
586
590
580
588
569
577
591
593
591
606
583
586
582
576
591
581
583
569
569
593
581
577
591
589
608
590
582
591
579
581
580
580
602
580
578
614
570
591
579
582
599
575
582
578
579
610
574
578
604
575
571
580
581
586
582
588
590
584
598
575
585
605
569
576
575
568
601
577
580
581
581
587
572
585
607
592
591
575
577
594
563
584
592
592
593
575
564
587
563
598
587
587
601
584
593
592
567
597
575
581
612
576
587
581
570
585
582
593
597
589
602
579
577
589
558
587
584
570
585
574
577
578
572
598
596
601
597
575
585
569
570
598
585
594
613
565
582
563
579
601
585
587
581
586
595
572
585
605
576
583
576
585
596
567
589
566
583
593
584
575
596
581
580
569
587
607
580
610
566
584
580
564
589
596
591
608
581
583
597
570
585
577
587
596
567
579
579
572
590
578
591
603
579
590
575
583
598
575
607
618
570
600
569
580
580
575
595
603
583
581
583
591
599
583
591
571
589
588
566
589
582
582
595
576
595
606
586
573
570
591
608
580
615
600
581
593
563
578
589
585
597
577
593
601
586
584
589
578
582
578
575
579
584
600
565
588
603
581
582
594
599
613
584
600
607
599
589
564
573
600
570
578
586
581
601
585
586
590
590
588
556
582
591
587
585
579
578
587
577
593
595
583
597
576
607
591
596
609
582
592
588
581
584
585
572
589
599
605
593
592
600
607
590
591
593
607
603
613
611
602
620
625
617
